1.411403032497806542e+01 4.490882581408691721e+01 1.289720319504968771e+01 2.074643370947188714e+01
1.411020232365221716e+01 4.509163314851215176e+01 1.289115754672170056e+01 2.074643370947188714e+01
1.411292439767181683e+01 4.515388076345154644e+01 1.288982817629466560e+01 2.074947582393777523e+01
1.411060129740757851e+01 4.516958494385352907e+01 1.289587444783795434e+01 2.074728040093074100e+01
1.412012073653764688e+01 4.522254176845878249e+01 1.290036404503376311e+01 2.078303422653948118e+01
1.418498087465754942e+01 4.524994174581885176e+01 1.290158314062269795e+01 2.078376126325979101e+01
1.415779665394303066e+01 4.529212112498154141e+01 1.290397875441524000e+01 2.085623541825109584e+01
1.417533777849404508e+01 4.534551034005460934e+01 1.289943380518695015e+01 2.085623541825109584e+01
1.418481377298977719e+01 4.534734104663689891e+01 1.290981409062112917e+01 2.089567320527174132e+01
1.418362905939098795e+01 4.536108212994923150e+01 1.291518940218841038e+01 2.089781081696146359e+01
1.419476727862772947e+01 4.539257476724579021e+01 1.294649217102454486e+01 2.089497117637426982e+01
1.420668484954883759e+01 4.551115682994664979e+01 1.298713774218168027e+01 2.089236519388948565e+01
1.421969014059028247e+01 4.567153253395378698e+01 1.304426785428756475e+01 2.089112033077318742e+01
1.422458749680989776e+01 4.570144422225624936e+01 1.308122216975156604e+01 2.090152041634399538e+01
1.421421267937132349e+01 4.571138969666093743e+01 1.310314697522697713e+01 2.092314465294780135e+01
1.415296596528093431e+01 4.574547824648901440e+01 1.310778759113832592e+01 2.094471391405267013e+01
1.424624898892338187e+01 4.573494117193111208e+01 1.315714153813053322e+01 2.100953697557797639e+01
1.429158452846990990e+01 4.576102844124025637e+01 1.315681328644591730e+01 2.099457520491531426e+01
1.429320895580836570e+01 4.628710226402166938e+01 1.318609136986392372e+01 2.100237514143368500e+01
1.433948455469723271e+01 4.696430989591990368e+01 1.319637707912288604e+01 2.100520026235197690e+01
1.435771984175762128e+01 4.704643472145365735e+01 1.321076361814107614e+01 2.100520026235197690e+01
1.436039499785435858e+01 4.705566750137543153e+01 1.321601652595818521e+01 2.100520026235197690e+01
1.436039499785435858e+01 4.723775291014592881e+01 1.321601652595818521e+01 2.100496747553249932e+01
1.435864183599550969e+01 4.778334927566297097e+01 1.321835515389111748e+01 2.101094385270474874e+01
1.435031378104327437e+01 4.873288052229213463e+01 1.322549217286070977e+01 2.102927503794440156e+01
1.432696694818552707e+01 4.991026343348630689e+01 1.316472218675350092e+01 2.107102582113279254e+01
1.436820538878813913e+01 5.110866310127862988e+01 1.314225656173246293e+01 2.099534499474057725e+01
1.435993740983575861e+01 5.138621344290704229e+01 1.310800918577645469e+01 2.109746701213627418e+01
1.437427424304964774e+01 5.146972885104408846e+01 1.311541401002652130e+01 2.114491726305666219e+01
1.437290856627149616e+01 5.218592687688894927e+01 1.312827938209725609e+01 2.114157451803227517e+01
1.437296304644246092e+01 5.254241125034138093e+01 1.314550006102468060e+01 2.114175328415735322e+01
1.437154275971791861e+01 5.255468652746394298e+01 1.318553218699950413e+01 2.114178458522786030e+01
1.437262878719131720e+01 5.263663549278201970e+01 1.322688998723433684e+01 2.114029180959536802e+01
1.437262878719131720e+01 5.296572910854715843e+01 1.323422829538617052e+01 2.113967164381174157e+01
1.436987417114014143e+01 5.336073998737273882e+01 1.323765900808749230e+01 2.114233061092157939e+01
1.433255713173335089e+01 5.342490396809338193e+01 1.327006825055545569e+01 2.115021164105720075e+01
1.437377953408220854e+01 5.346262069895190194e+01 1.325985675995030810e+01 2.115021164105720430e+01
1.436091378758331416e+01 5.346380551363697720e+01 1.321134421678580928e+01 2.116211298543172958e+01
1.438000644834349551e+01 5.367051141921417923e+01 1.321286148623377699e+01 2.093359064680921477e+01
1.438306003096700181e+01 5.368417409255729211e+01 1.320025421627931728e+01 2.093382422734822512e+01
1.438611296543998819e+01 5.368802402771031268e+01 1.319523973614727197e+01 2.093382422734822157e+01
1.439520396293156246e+01 5.387617592220145468e+01 1.318627693378232912e+01 2.093936511696358593e+01
1.442119299414582301e+01 5.479145411467010973e+01 1.318772807781537004e+01 2.094087221571357560e+01
1.442668651126794721e+01 5.513803946460193117e+01 1.319019566854107950e+01 2.094087221571357560e+01
1.442441394353339135e+01 5.518155898486377708e+01 1.319052308949117780e+01 2.092855942888038712e+01
1.435743316942135550e+01 5.518992687076148229e+01 1.320557361777215100e+01 2.104246748731823047e+01
1.436152979645276417e+01 5.518637864545924998e+01 1.319531221663208242e+01 2.101668132083444362e+01
1.437589670018536836e+01 5.536240872649961631e+01 1.318354654007789684e+01 2.104853836591775007e+01
1.436044883471267397e+01 5.547523667367270406e+01 1.318815886522451208e+01 2.111444229103651793e+01
1.437222902177670569e+01 5.548543942332980095e+01 1.318815886522451386e+01 2.111321052188679914e+01
1.439184123920218283e+01 5.548543942332980095e+01 1.318945816682398409e+01 2.111321052188679914e+01
1.446628316653592350e+01 5.555496921068358063e+01 1.318601491332388420e+01 2.111297892596348191e+01
1.455953422930831920e+01 5.557040323769479784e+01 1.318257076045487786e+01 2.111324186527287949e+01
1.457659192041818130e+01 5.557071476956186018e+01 1.318257076045487786e+01 2.111324186527288305e+01
1.456814076313105311e+01 5.564634762497895082e+01 1.318289837078325988e+01 2.108823054205461034e+01
1.465794600666821346e+01 5.580619438736169968e+01 1.321757758193232135e+01 2.109606904508147451e+01
1.463416797547440495e+01 5.580467173991798546e+01 1.332306609209756409e+01 2.109606904508147451e+01
1.475940283393608787e+01 5.580288089337324209e+01 1.342772590777752839e+01 2.111103202739059626e+01
1.482874632645661706e+01 5.596697794235455348e+01 1.340912547239378405e+01 2.111392618932296372e+01
1.482963331759759384e+01 5.603591023620479206e+01 1.340363294686928519e+01 2.115189839316662557e+01
1.483923489181300859e+01 5.620422606886425854e+01 1.339941711024773774e+01 2.118351981033475084e+01
1.490604981658120565e+01 5.620663409242720832e+01 1.339509478034402790e+01 2.119666066486680123e+01
1.501626539504415625e+01 5.641619225009785765e+01 1.339087625566004114e+01 2.120438626530317805e+01
1.507322565658726532e+01 5.665438888559297226e+01 1.339087625566004114e+01 2.119801419335102111e+01
1.509542959224415704e+01 5.665477925118057101e+01 1.339168751182612738e+01 2.119565708680699245e+01
1.504096400149939150e+01 5.664292100518829187e+01 1.348584211142929945e+01 2.119892782905568041e+01
1.503598699169431363e+01 5.667489366553765961e+01 1.363184573322335602e+01 2.114067684523948287e+01
1.503542747561241200e+01 5.686077139821443183e+01 1.376646609171721458e+01 2.113293978559328323e+01
1.507445419026508482e+01 5.719292798939394373e+01 1.387582130810280567e+01 2.111298310917190335e+01
1.507915183338905685e+01 5.721670906300012405e+01 1.389571112014062493e+01 2.110748779576049117e+01
1.509784578058739513e+01 5.731928384060639559e+01 1.389232523137864916e+01 2.111006722194045437e+01
1.511651660980136569e+01 5.746637037433286110e+01 1.388671282105307370e+01 2.111633003171190381e+01
1.512413801624411924e+01 5.768675816857800243e+01 1.388079034689306823e+01 2.111633003171190381e+01
1.513198844879286220e+01 5.795301900677824847e+01 1.389653584510901752e+01 2.110795180293068540e+01
1.512630545818775119e+01 5.810206732982916122e+01 1.392199649527321981e+01 2.115346682464866035e+01
1.523727381438033213e+01 5.822902022187906823e+01 1.406178881417296012e+01 2.109645314347520539e+01
1.523236094682635056e+01 5.823408613518375887e+01 1.419233156371424975e+01 2.137330585024642815e+01
1.523488252184441905e+01 5.840832848147600487e+01 1.428751241099722513e+01 2.138801299875341044e+01
1.529394023835586225e+01 5.844219657062866702e+01 1.432084045628606894e+01 2.143148995492796161e+01
1.529236952255603121e+01 5.905774519908460718e+01 1.433383233104112264e+01 2.143126179847665469e+01
1.529597984878381567e+01 5.961309845998613355e+01 1.433617259432934432e+01 2.142978918751911976e+01
1.533821298634233266e+01 5.981600819178760275e+01 1.433420035071366527e+01 2.142831647535984274e+01
1.541586948616264685e+01 6.087576775696550868e+01 1.434354234679842754e+01 2.142814009991327850e+01
1.543410486987828456e+01 6.141795441074214779e+01 1.434503483768511956e+01 2.142490434941336019e+01
1.542640818383853585e+01 6.144020055305809791e+01 1.434427749921200324e+01 2.139606127697755156e+01
1.534006187778916797e+01 6.144158373609847246e+01 1.435761843253956016e+01 2.138156599896692001e+01
1.544850248840969442e+01 6.153280897212479061e+01 1.438226286000919174e+01 2.148323073612327150e+01
1.552011621136905539e+01 6.151155146799664664e+01 1.438226286000918996e+01 2.162316629500664789e+01
1.549899867263690467e+01 6.193471650052174482e+01 1.442650461388342364e+01 2.136969053796002527e+01
1.549850776347195769e+01 6.229080301296492905e+01 1.452421026611773236e+01 2.138847367302097879e+01
1.550977697371566322e+01 6.233417017976577057e+01 1.456790872069150922e+01 2.141508704523156581e+01
1.565060832090563103e+01 6.273345356346963086e+01 1.459643073132605551e+01 2.142831408102011537e+01
1.576731853469069122e+01 6.511037978694334072e+01 1.465115194428068612e+01 2.143187113268877297e+01
1.581354235376756456e+01 6.665404644880909757e+01 1.469668751298739728e+01 2.142624037782126223e+01
1.582375599958494838e+01 6.678067130540094354e+01 1.474208243140702734e+01 2.149797282307128654e+01
1.580258618879835808e+01 6.677668847734214808e+01 1.493386957002101489e+01 2.161242725674694398e+01
1.586587083819859423e+01 6.678576018883067889e+01 1.495113885208747995e+01 2.175827253639815595e+01
1.602007786792563238e+01 6.708299906831835813e+01 1.495811453941972147e+01 2.176978032858496448e+01
1.613875471324849897e+01 6.781094675640504477e+01 1.497507947539510376e+01 2.183201770813174747e+01
1.626730928501701001e+01 6.843294051843747638e+01 1.498634846032881107e+01 2.183201770813174747e+01
1.629266973379134598e+01 6.899496274366701698e+01 1.500029399759883653e+01 2.183179373745650054e+01
1.629141680807413906e+01 6.991395274192413467e+01 1.501295198734744929e+01 2.183034814522002875e+01
1.629222416781700744e+01 7.001783295704031218e+01 1.501409337437328162e+01 2.183480586544133928e+01
1.629951201767710955e+01 7.026581402075977678e+01 1.501591879621089731e+01 2.185125578774619370e+01
1.648073097451689506e+01 7.105300261072716239e+01 1.501996844784967244e+01 2.185125578774619370e+01
1.673240355760046327e+01 7.131273639399907438e+01 1.502812811811237204e+01 2.213085176809766352e+01
1.671000953244493559e+01 7.132673403430160874e+01 1.502202315583356373e+01 2.224028366923808520e+01
1.669961554091592149e+01 7.141122099502290155e+01 1.500974823554345150e+01 2.224947514425553763e+01
1.674130762916686166e+01 7.177604494537156654e+01 1.500215742399738339e+01 2.230421939831515843e+01
1.674130762916686166e+01 7.183518817404184631e+01 1.500645918577729709e+01 2.230497662813192861e+01
1.675234534070977688e+01 7.186445661103965676e+01 1.499998791514178897e+01 2.230458796170670510e+01
1.677315742769978613e+01 7.189599524312880874e+01 1.499351385147590143e+01 2.230317301390495643e+01
1.684419972852377612e+01 7.246041448956802355e+01 1.500745273037365735e+01 2.233294546169056005e+01
1.688372298796685911e+01 7.256259507487311566e+01 1.500528398712932443e+01 2.233524378095848917e+01
1.687642720525883533e+01 7.260858899606850514e+01 1.500528398712932443e+01 2.235491418565900545e+01
1.691827590312915319e+01 7.288599676206671063e+01 1.499590234211998840e+01 2.233960075280766588e+01
1.698164638468250942e+01 7.296094333271740595e+01 1.497433234886950437e+01 2.248271584739808304e+01
1.702956523268872147e+01 7.295603440429036368e+01 1.506485985910256353e+01 2.246656758077458349e+01
1.709857002718064933e+01 7.297982392415043762e+01 1.508361535489418870e+01 2.247646573125272695e+01
1.716594253789754632e+01 7.298868282137992480e+01 1.508501656129020496e+01 2.249915514817192985e+01
1.721814459732524227e+01 7.303428238847835985e+01 1.507886542198714963e+01 2.250254292907458975e+01
1.724861394125337810e+01 7.325146870882521455e+01 1.507447586930967631e+01 2.251810180472985934e+01
1.725526482481217982e+01 7.337301811974208476e+01 1.506959033863892827e+01 2.253043490824899209e+01
1.726652432930265491e+01 7.457273649263515836e+01 1.508375445087859035e+01 2.252258272182636389e+01
1.727090145228095608e+01 7.491896643707787007e+01 1.510721437772032516e+01 2.252258272182636389e+01
1.727090145228095608e+01 7.512739524301372285e+01 1.518545436707113083e+01 2.252216842805131591e+01
1.730047725626089061e+01 7.547476937361253135e+01 1.519070371557551269e+01 2.238534309248304055e+01
1.733775692107835553e+01 7.660429426605273306e+01 1.518025705231633005e+01 2.225274827629563035e+01
1.733422816090754992e+01 7.743579190529402467e+01 1.520988375545321958e+01 2.224661600112501247e+01
1.739518621269689902e+01 7.765973291223708941e+01 1.527196224767464905e+01 2.227078698523048317e+01
1.743233436618287158e+01 7.802936393435487616e+01 1.531324469387202569e+01 2.228084306442445950e+01
1.744293480852348566e+01 7.976254481898129711e+01 1.531199499002006981e+01 2.228582964504974839e+01
1.747301216889636066e+01 8.016636119969521701e+01 1.530718526752713338e+01 2.228558054067348593e+01
1.748225633076005892e+01 8.033951548273115861e+01 1.533550304927750751e+01 2.229460261815652089e+01
1.751126305479990819e+01 8.047630888652884096e+01 1.550135872800832004e+01 2.231620118407651887e+01
1.758420091372935090e+01 8.055171156468371407e+01 1.566501151019046389e+01 2.230639014172496815e+01
1.754621093724796665e+01 8.073523223475609711e+01 1.570142593315650714e+01 2.245112266431632619e+01
1.767140622854899590e+01 8.078205119950843027e+01 1.572206773724117035e+01 2.254752295356435710e+01
1.764139478880284528e+01 8.101706928789759843e+01 1.576451028400183674e+01 2.238891165275446937e+01
1.764091790849898445e+01 8.140564115588058769e+01 1.581044173495477345e+01 2.238645921403185213e+01
1.764180267473820862e+01 8.140801722189283396e+01 1.593246226841286806e+01 2.238851360455873518e+01
1.764608911272977210e+01 8.142279997641938394e+01 1.603480316356891322e+01 2.239124264725337454e+01
1.765683331558635061e+01 8.142461684281971657e+01 1.612395216609127857e+01 2.239329659894179514e+01
1.765683331558635061e+01 8.144148841960098650e+01 1.619887277604215470e+01 2.240299934402039383e+01
1.764736399620068141e+01 8.153423165762954739e+01 1.629190926608664114e+01 2.240908882473459585e+01
1.760667911033764810e+01 8.194152815270167878e+01 1.639724048534995759e+01 2.219819375913676041e+01
1.776487518262934628e+01 8.227923021030278505e+01 1.641614932724479203e+01 2.218967427569660344e+01
1.777410567804749064e+01 8.299876859327493150e+01 1.655783151062963654e+01 2.214192384493373211e+01
1.781156562726589954e+01 8.408344833556721198e+01 1.656632864621487755e+01 2.214511559046023592e+01
1.786034943931389307e+01 8.408684222873398539e+01 1.661294895960375939e+01 2.214691182403342751e+01
1.787315795751830905e+01 8.480289695523379123e+01 1.674111963801703595e+01 2.215288151087449364e+01
1.786970945523177789e+01 8.495568800262876152e+01 1.690165437152232286e+01 2.215364391354565043e+01
1.787525609143544614e+01 8.495577830848235124e+01 1.718642522499660785e+01 2.215389450145304906e+01
1.792048507419372427e+01 8.564092444620153799e+01 1.762016809495300151e+01 2.216765224995296890e+01
1.804705596861715478e+01 8.733623900764217751e+01 1.804372669307534238e+01 2.219815566831724496e+01
1.834606529625358462e+01 8.739319856830965705e+01 1.870803443695782065e+01 2.218785234210028179e+01
1.829253917897677084e+01 8.744689394140880268e+01 1.922386620881449204e+01 2.216773152448196882e+01
1.829253917897676729e+01 8.748330974534513871e+01 1.950568342648879749e+01 2.212711599301134058e+01
1.825384138460724159e+01 8.753877136446455154e+01 1.969633257676158777e+01 2.213966689981683089e+01
1.825515729032209578e+01 8.754377883093692958e+01 1.976800863654201734e+01 2.213906410024698701e+01
1.825719356348066924e+01 8.753804400373587669e+01 1.982778338025710241e+01 2.213889338716319699e+01
1.825743409831731867e+01 8.753588943970352432e+01 1.986964115263281982e+01 2.213895316965502857e+01
1.825785082681967708e+01 8.753434327165538775e+01 1.990018530603169111e+01 2.213752763510065336e+01
1.826100466497941710e+01 8.755908750095559867e+01 1.996119469005799729e+01 2.214065923939133995e+01
1.825835448046728970e+01 8.759760117720118444e+01 2.003576874328508595e+01 2.216305909770080618e+01
1.822289842627676038e+01 8.761006410224797492e+01 2.008670379764683389e+01 2.217904509835455329e+01
1.824229621550971459e+01 8.763180954425168068e+01 2.016019364625250176e+01 2.219510075147617911e+01
1.825128525924681355e+01 8.776471858326669917e+01 2.017298937922685909e+01 2.209232626188359561e+01
1.824900884580858573e+01 8.904956109942372677e+01 2.017741208020492749e+01 2.215214430391585765e+01
1.826811592733087508e+01 9.095222396401308629e+01 2.018682405962858795e+01 2.217102634178621656e+01
1.832681952588609775e+01 9.190216931063160644e+01 2.020771338708068043e+01 2.217102634178622012e+01
1.836319464184813199e+01 9.229294111685896951e+01 2.021547217391668383e+01 2.216977334619169326e+01
1.836502245069142347e+01 9.229215513790971670e+01 2.021246348999546427e+01 2.216658515111228667e+01
1.841226347015488329e+01 9.310738254295411309e+01 2.022997672402021507e+01 2.217456339941882604e+01
1.849272289778874168e+01 9.611998491468877148e+01 2.030455088334631597e+01 2.216802871843844613e+01
1.845968741702849059e+01 9.798215778395572784e+01 2.047508412520934229e+01 2.216411872873613120e+01
1.845149385861209623e+01 9.795990741114445655e+01 2.083020526481675461e+01 2.190571735859944624e+01
1.844125510735101514e+01 9.797131570005576862e+01 2.085852138993557148e+01 2.190713750314065322e+01
1.843754611911248986e+01 9.804563107043573211e+01 2.087027485047572739e+01 2.193419530341103041e+01
1.843617607245059986e+01 9.805437717919579654e+01 2.087701685620816150e+01 2.193629204966460478e+01
1.843799664644724601e+01 9.805354392371543781e+01 2.087476336666836829e+01 2.194072824516493725e+01
1.843799664644724601e+01 9.809184008876574978e+01 2.087184972000325089e+01 2.194098126478193223e+01
1.844183752271990784e+01 9.821655043830439524e+01 2.087184972000325089e+01 2.194282436716336804e+01
1.844411826069221405e+01 9.825569754472252271e+01 2.087202831002295511e+01 2.193884407730221398e+01
1.844234074987228666e+01 9.827031753281349324e+01 2.087350919070388855e+01 2.193742598532270449e+01
1.843661459635146471e+01 9.831313147286068954e+01 2.091522349711806683e+01 2.192855873501140707e+01
1.849519475794726375e+01 9.837444324620084046e+01 2.101231328565229006e+01 2.188592375831655801e+01
1.851601213691543890e+01 9.840931892864612962e+01 2.107545640631300188e+01 2.185009415772645625e+01
1.854722091566280540e+01 9.841326371988681387e+01 2.109078757406654248e+01 2.162009475360468969e+01
1.854596909774196334e+01 9.852673848250529431e+01 2.109655205227621266e+01 2.161464570350803527e+01
1.860295694814132972e+01 9.867753634946502928e+01 2.109521405851099018e+01 2.161318558738727447e+01
1.880736312018247247e+01 9.877200654031480553e+01 2.109253562031837959e+01 2.161195162392431968e+01
1.893803815431787996e+01 9.878879885897991642e+01 2.110777692923628734e+01 2.161220849261311372e+01
1.893907464725771206e+01 9.904385386282174863e+01 2.113961121720074843e+01 2.162039131518002222e+01
1.894306530248998044e+01 9.905464235461148803e+01 2.117099183728527478e+01 2.165013578236508707e+01
1.896321803530191374e+01 9.916589141433657062e+01 2.134094863904600814e+01 2.170369811026479567e+01
1.898341571410160711e+01 9.928624059757721909e+01 2.151972699860292693e+01 2.148410759689229721e+01
1.894548564313936367e+01 9.951182589019252589e+01 2.152411160383628541e+01 2.146056259424509705e+01
1.894398699361883942e+01 9.961217120412540282e+01 2.152946441726778559e+01 2.144605948408343465e+01
1.894176644387739472e+01 9.962374068463797983e+01 2.152684000995965263e+01 2.145014184214590358e+01
1.897297710361765155e+01 9.968268762428104424e+01 2.152552876224878275e+01 2.145161305593385137e+01
1.901878208967124095e+01 9.975774670670941191e+01 2.152270321345345394e+01 2.145308416882861735e+01
1.903051624350741733e+01 9.976402383625067216e+01 2.152481291566548549e+01 2.145455518085094937e+01
1.904412804027529305e+01 9.976680740607064024e+01 2.152932304775047356e+01 2.145170697500578072e+01
1.910313522368513262e+01 9.992349339369592087e+01 2.153705523451151294e+01 2.145170697500578072e+01
1.918976626888403914e+01 9.995321279478710608e+01 2.154334371109553814e+01 2.145029746945665039e+01
1.922619348738589196e+01 1.000801895082138202e+02 2.154903340789093846e+01 2.152831199780523974e+01
1.919258227165900621e+01 1.000827888700149657e+02 2.157021577672322721e+01 2.147512644110650371e+01
1.920151827367824637e+01 1.007096453176158803e+02 2.157776914915904243e+01 2.137792731537628654e+01
1.926360709769589263e+01 1.023723019766576812e+02 2.158266628232943063e+01 2.139472852413677373e+01
1.934285474728070398e+01 1.025569484140396668e+02 2.158056223582693534e+01 2.142010798809174332e+01
1.940163135033751729e+01 1.025563005378021160e+02 2.157838221958262892e+01 2.148393886375381712e+01
1.940377254078184777e+01 1.025563902055839236e+02 2.158311509338723155e+01 2.155106615850311869e+01
1.943102186541921128e+01 1.025683741316005779e+02 2.158748682395428276e+01 2.171229922865943252e+01
1.943933493961147718e+01 1.025916068886728709e+02 2.161861473116165655e+01 2.181241914341869403e+01
1.949706576114466117e+01 1.026732326363594723e+02 2.170007876516580225e+01 2.182976171456860115e+01
1.943592419450126130e+01 1.028876410653873847e+02 2.168525375489988960e+01 2.174190544443713335e+01
1.941609314394632690e+01 1.029468726868377928e+02 2.167077946762413276e+01 2.170056273267688596e+01
1.950434646160694996e+01 1.029594565059469886e+02 2.167196877107383912e+01 2.170761819411589855e+01
1.967426695799361980e+01 1.029782390799143030e+02 2.167742334167969531e+01 2.176020509909879053e+01
1.991392850480285048e+01 1.029906835592423420e+02 2.168510272086345836e+01 2.182584435712652038e+01
2.003840701089783494e+01 1.030067881452479384e+02 2.169683565164283934e+01 2.190135463652522674e+01
2.008279843483968818e+01 1.030903671736597857e+02 2.171006136551437038e+01 2.190783796623584934e+01
2.008347920890201266e+01 1.030833007426517725e+02 2.171753034243073799e+01 2.190783796623585289e+01
2.014575721124424490e+01 1.037300067868502111e+02 2.171701329406048231e+01 2.184206134552120560e+01
2.039431134052825456e+01 1.043642653593651772e+02 2.171247086847555607e+01 2.185421576618216477e+01
2.039364094256833226e+01 1.048336099731378681e+02 2.167229113901895943e+01 2.183982256540053157e+01
2.040376089681506144e+01 1.050523719103952089e+02 2.165388302578546131e+01 2.194589563042510605e+01
2.039287972637507096e+01 1.050548950787158304e+02 2.167466285261202330e+01 2.198939543404604535e+01
2.039887844403214601e+01 1.050881276833876683e+02 2.169758274496031802e+01 2.200084282707168626e+01
2.040066132296694335e+01 1.051325189463278775e+02 2.169758274496031802e+01 2.203124578914028930e+01
2.041812760892632284e+01 1.054037413187975574e+02 2.169670077441267608e+01 2.210703933459909720e+01
2.047090124870909023e+01 1.075302182458493405e+02 2.169520072675981837e+01 2.215892888585047160e+01
2.049041792873926227e+01 1.076324596950194632e+02 2.169539979291461762e+01 2.215873974473379349e+01
2.057978046565121488e+01 1.077869150314637636e+02 2.169520072675981481e+01 2.216217956267339773e+01
2.062014576511037589e+01 1.077900929213811878e+02 2.170093021449540416e+01 2.222700887437425266e+01
2.063881992010200506e+01 1.080368733534990326e+02 2.167564414946876639e+01 2.225741277765331461e+01
2.070753353189122237e+01 1.085538612302666479e+02 2.171169580144304589e+01 2.228273923275244783e+01
2.083790851343769646e+01 1.087950303828258001e+02 2.171126244911611636e+01 2.221782267118401677e+01
2.085869105036073989e+01 1.088111691509653269e+02 2.172333697787703244e+01 2.221899320329745464e+01
2.087401103033145588e+01 1.088111691509653269e+02 2.172741262493994441e+01 2.221938336696539196e+01
2.089489186606140692e+01 1.088165939735295495e+02 2.173462891917871431e+01 2.221938336696539196e+01
2.089851108223739473e+01 1.090300803448295568e+02 2.174184281827094267e+01 2.222011337463226610e+01
2.089788168055315509e+01 1.097839076914280270e+02 2.175480507507248973e+01 2.221804341299007746e+01
2.090204108728138621e+01 1.107265814337279579e+02 2.175874321403696499e+01 2.221804341299007390e+01
2.087130581478790248e+01 1.113328879172726289e+02 2.174525840762532169e+01 2.221144207433438567e+01
2.109578257411654434e+01 1.114156808532802074e+02 2.169361830618395715e+01 2.216786751512599807e+01
2.124066830620918367e+01 1.118709691564348105e+02 2.171273578742208699e+01 2.216786751512599807e+01
2.124813097508576831e+01 1.130209073578866139e+02 2.173318352046933200e+01 2.206803044847557516e+01
2.127301793010101250e+01 1.132474184253221239e+02 2.173472708120347363e+01 2.206534140671394795e+01
2.151598199698073799e+01 1.132277528700450375e+02 2.173212746176498200e+01 2.206534140671394795e+01
2.158333521618934725e+01 1.132941666812550068e+02 2.172930369833326480e+01 2.206517012325485183e+01
2.158453883348910551e+01 1.135037863156995712e+02 2.172930369833326480e+01 2.206373982159065150e+01
2.160752120198888448e+01 1.137375906725652044e+02 2.172910494278123039e+01 2.204744843728736470e+01
2.164364096944872173e+01 1.139193632531361686e+02 2.172914256233778829e+01 2.200194470635520361e+01
2.173082024439941051e+01 1.140959929357731255e+02 2.173904325434768836e+01 2.201031603668709380e+01
2.174301561454618437e+01 1.140961315908650278e+02 2.179348755234920532e+01 2.194844889845700209e+01
2.175373610979040961e+01 1.141380786766624595e+02 2.178778240423746482e+01 2.198782979456692743e+01
2.180534028935112190e+01 1.144628279399036614e+02 2.180873288236617569e+01 2.205095763623079108e+01
2.180687958636904966e+01 1.151546019749101930e+02 2.181112561273259232e+01 2.204958643742579838e+01
2.181557468998694915e+01 1.153290568590586815e+02 2.184024910879909598e+01 2.204958643742579838e+01
2.183542672297473430e+01 1.155536836106923602e+02 2.187659895720538472e+01 2.204815512482117867e+01
2.186574616184865505e+01 1.156357770415367128e+02 2.189900888383763800e+01 2.205024103469570562e+01
2.186424682293902322e+01 1.156609239631086012e+02 2.190750711547071106e+01 2.207073981862664525e+01
2.185971236806191698e+01 1.156940189811037385e+02 2.192581836681129914e+01 2.208055433320259198e+01
2.185171814604973051e+01 1.157688740724379386e+02 2.196215065639974284e+01 2.207144476002522637e+01
2.191303008929616425e+01 1.159027141183501044e+02 2.196074318629494115e+01 2.201851954775445463e+01
2.203507111525622264e+01 1.159220858853048384e+02 2.194601976519659914e+01 2.199121876829124389e+01
2.203427391348303743e+01 1.159509610999408267e+02 2.195151187172308838e+01 2.200729952314712534e+01
2.230444377280901946e+01 1.160534034141178950e+02 2.194931271120805860e+01 2.200873349274885271e+01
2.232294666244577641e+01 1.160656594001860213e+02 2.194320899810234238e+01 2.200729952314712534e+01
2.245745842463922060e+01 1.168895913415732366e+02 2.193710358671808791e+01 2.201054085617870015e+01
2.264387697931604393e+01 1.171362032678197664e+02 2.193319747265317687e+01 2.202341027137967444e+01
2.292948107599469765e+01 1.172846643513123155e+02 2.194039178534420742e+01 2.202451000941553616e+01
2.295611828542445920e+01 1.174997247826563722e+02 2.194180056090200637e+01 2.201438827634126838e+01
2.303333175409930078e+01 1.174974611981041477e+02 2.196084691295851599e+01 2.201759850986278266e+01
2.306082919268947862e+01 1.176200926202661634e+02 2.188609704845520554e+01 2.197438809966833162e+01
2.320472134058927338e+01 1.176586190128032712e+02 2.190160374799981824e+01 2.200788789218186636e+01
2.329852237405624038e+01 1.177366844955300564e+02 2.190011773517210258e+01 2.192579558134311313e+01
2.334821705258025304e+01 1.177509906709917544e+02 2.190099151395661536e+01 2.194217728929481481e+01
2.334944888459681067e+01 1.177473367681833736e+02 2.190186525788156757e+01 2.194283509078787731e+01
2.337192638047619653e+01 1.179766686934327282e+02 2.193666226604219815e+01 2.194493101154596815e+01
2.340316852083066124e+01 1.184198241343061113e+02 2.198576729100896543e+01 2.194936546102214336e+01
2.341054934200390036e+01 1.191828559315474223e+02 2.201190491380515724e+01 2.198272945097685493e+01
2.341744974702410431e+01 1.204785638526621341e+02 2.202494143316616615e+01 2.194892996225962989e+01
2.351552498275126979e+01 1.212737992643093037e+02 2.200885656308386373e+01 2.189043432083623841e+01
2.346832199230271243e+01 1.212753455406332250e+02 2.201360828611247200e+01 2.187962011815664809e+01
2.340773216555587410e+01 1.212730757423097145e+02 2.202422920000606155e+01 2.184896578562728919e+01
2.349384696669319439e+01 1.223781606169989260e+02 2.202461927966972866e+01 2.184045012680626385e+01
2.355539229336669393e+01 1.247623742480079159e+02 2.202107960692208266e+01 2.184045012680626385e+01
2.357767345635270928e+01 1.257846992761837726e+02 2.202107960692208266e+01 2.183900510756335933e+01
2.357909705171932657e+01 1.258191171324929769e+02 2.202401046527175055e+01 2.183781420765774328e+01
2.358052056114111750e+01 1.258331819672378202e+02 2.203556294389593262e+01 2.183781420765774328e+01
2.358052056114111750e+01 1.258366081392850617e+02 2.204858547513648404e+01 2.185986410650453138e+01
2.357731484657231036e+01 1.258894268951923721e+02 2.205006148232697072e+01 2.187896679785203702e+01
2.358459136670379053e+01 1.259261053951879603e+02 2.205165700110537230e+01 2.188807417342859196e+01
2.359429259830433878e+01 1.259349732361903733e+02 2.206335579947890579e+01 2.186867380420781615e+01
2.358218181285181458e+01 1.259350462579816678e+02 2.206620695304019719e+01 2.182849924498196970e+01
2.359942420345036851e+01 1.259396668409122952e+02 2.206620695304019364e+01 2.183193990177796806e+01
2.360028915446586240e+01 1.259580129884557351e+02 2.209007868918532225e+01 2.182844804335644184e+01
2.360349354511740572e+01 1.260056264616782329e+02 2.217019346813192371e+01 2.182887550336736027e+01
2.362184304101606003e+01 1.260354296061229888e+02 2.227086185342631808e+01 2.182912981946016728e+01
2.365007552153690185e+01 1.260659384449264451e+02 2.239411662411356474e+01 2.183123665656265544e+01
2.367264933577141761e+01 1.260680481803378541e+02 2.248299548757681521e+01 2.183933741321330402e+01
2.366425247698305867e+01 1.261265219848703509e+02 2.251537026332011138e+01 2.181051277484121442e+01
2.369082421559872387e+01 1.261571031848781104e+02 2.249765198802753829e+01 2.180587676831282806e+01
2.370024442773531703e+01 1.261438293853487806e+02 2.248940692891654436e+01 2.194631511138437929e+01
2.372180562803765369e+01 1.264010002333841669e+02 2.249066198079548329e+01 2.195712761014469194e+01
2.373591342110934832e+01 1.272673419067121898e+02 2.257790862977347146e+01 2.197151424386080976e+01
2.374074698096921665e+01 1.279780952038276780e+02 2.264494618086780520e+01 2.198440650479740199e+01
2.375262500050044778e+01 1.280855183851788297e+02 2.265333297540120228e+01 2.198584196753701292e+01
2.380985299606864203e+01 1.281219847020798568e+02 2.266941755260596736e+01 2.198606436893254212e+01
2.382181427545766894e+01 1.296709501006296250e+02 2.267863911292737811e+01 2.198532658983058496e+01
2.385152927622040053e+01 1.308916465936615339e+02 2.269106623176618243e+01 2.198299168679076132e+01
2.385015477380385818e+01 1.310822311833300375e+02 2.269627588514026328e+01 2.202387300805299120e+01
2.382768962728864537e+01 1.311372370762781543e+02 2.269087385920602529e+01 2.205167353728158730e+01
2.383012542506645914e+01 1.311359919625423913e+02 2.269125247875047080e+01 2.204770255925799916e+01
2.384167838752965807e+01 1.311374392155039175e+02 2.268281351539970458e+01 2.210125921197353449e+01
2.393345090400460151e+01 1.311315605184350375e+02 2.271464139303985164e+01 2.209685524491765918e+01
2.397763769878923412e+01 1.311223792188045252e+02 2.276122740834508207e+01 2.209806213121062157e+01
2.399485039116515495e+01 1.311203999536303400e+02 2.279294578974818108e+01 2.209806213121062157e+01
2.400278552865059822e+01 1.311198533403694171e+02 2.281722260781095457e+01 2.209831334939791958e+01
2.399983462973023407e+01 1.311260284916766068e+02 2.283727035559195784e+01 2.209856456472935093e+01
2.402386816843612749e+01 1.311312073764288471e+02 2.284717421508400292e+01 2.209124287392732811e+01
2.404094299345178598e+01 1.313050953314455001e+02 2.285179931678027287e+01 2.208891916674161138e+01
2.410675415426968016e+01 1.315777595340488801e+02 2.283765036632269485e+01 2.210067632588449982e+01
2.410745122020157538e+01 1.317466220743438612e+02 2.285851558466557876e+01 2.199752185030952134e+01
2.410053014882449673e+01 1.317313907464731528e+02 2.285851558466557876e+01 2.198868050812004071e+01
2.409321708727165046e+01 1.318672091916712930e+02 2.288599018470468494e+01 2.197068427598113871e+01
2.408992804668371335e+01 1.319428999378139906e+02 2.290383251803940112e+01 2.197212063520902348e+01
2.408771708930505184e+01 1.319756324326577896e+02 2.295003449963417808e+01 2.197490138942254490e+01
2.408841470612789593e+01 1.320210756659708409e+02 2.298324461720753220e+01 2.198504130194387685e+01
2.411525453181862488e+01 1.321455396598765049e+02 2.301350158525205813e+01 2.200112657194728172e+01
2.412555690910364703e+01 1.321844370718428934e+02 2.304060594373331838e+01 2.204663199148972552e+01
2.413028699734834603e+01 1.321657108178970645e+02 2.309055226741878997e+01 2.206095025774829921e+01
2.409271684502182964e+01 1.321530867289901607e+02 2.313649915467763307e+01 2.205084525140729212e+01
2.412996249011586514e+01 1.321656378791400925e+02 2.314576253603235401e+01 2.198598945104612312e+01
2.419605195263059016e+01 1.322054725493615592e+02 2.314442704441825072e+01 2.203899278237350501e+01
2.438766229416830811e+01 1.322625571051761710e+02 2.317137825539082741e+01 2.211333268252838735e+01
2.438667730082141816e+01 1.322672916332680870e+02 2.321982772749183610e+01 2.212614231013120047e+01
2.438687430267352951e+01 1.323291711604058776e+02 2.325460528012459704e+01 2.217204446883908986e+01
2.438997535083622381e+01 1.323842007642905685e+02 2.330632620415321554e+01 2.218482019598486943e+01
2.439755296939425833e+01 1.323965827806744926e+02 2.334214912158687127e+01 2.218482019598486943e+01
2.439835753189953138e+01 1.324002014046806153e+02 2.335444310649257815e+01 2.218895651523173385e+01
2.439835753189953138e+01 1.324182002747356250e+02 2.336138635643010986e+01 2.221911034961071962e+01
2.470190528065393210e+01 1.324732355308044589e+02 2.331788233983521152e+01 2.226416000140535445e+01
2.473773541483534189e+01 1.327078674532900209e+02 2.331788233983521152e+01 2.235312545681650676e+01
2.476469577794968302e+01 1.328041130838950892e+02 2.336602803761047298e+01 2.235312545681650676e+01
2.476503548179163516e+01 1.328271945197970183e+02 2.340058831086087920e+01 2.225543813531525927e+01
2.482998313036879168e+01 1.328521975580381422e+02 2.350447303502885887e+01 2.226040067881778839e+01
2.485380064324969140e+01 1.328534432372755418e+02 2.359022466053256650e+01 2.225773487804882933e+01
2.485078898414291260e+01 1.328865651749641472e+02 2.371222466860498557e+01 2.225773487804882933e+01
2.488470596359134746e+01 1.337459772703463159e+02 2.386384760960391915e+01 2.225750528057546518e+01
2.488947798919051024e+01 1.338525777861599408e+02 2.393402550709760490e+01 2.226723747649996810e+01
2.490827146500533118e+01 1.339492863586812632e+02 2.395782333715645862e+01 2.236776527970950568e+01
2.501676385175346340e+01 1.339541018856832011e+02 2.394117260984513251e+01 2.242494534058395317e+01
2.504820404608679141e+01 1.339880260471061604e+02 2.383469209061444971e+01 2.238751483680531251e+01
2.503224114965335545e+01 1.341280937462394718e+02 2.384422177749567950e+01 2.235977177898240598e+01
2.503115469678533955e+01 1.341987569689078725e+02 2.384422177749567595e+01 2.235085660837584243e+01
2.503193889442842845e+01 1.341922365116551816e+02 2.384440290245069605e+01 2.235243762116736121e+01
2.503238614943446905e+01 1.342015265039858036e+02 2.384677225652140820e+01 2.235384945063179529e+01
2.507152724854229220e+01 1.341742147061051469e+02 2.388199958157605707e+01 2.236480257267755789e+01
2.535594309534549140e+01 1.341796073179527582e+02 2.391717502077532487e+01 2.237746825078397350e+01
2.535421108720203875e+01 1.343550196605992255e+02 2.396835941015569560e+01 2.237746825078397350e+01
2.534637130980288333e+01 1.344564976339931377e+02 2.401655620971497385e+01 2.238307816740535117e+01
2.528918499624688820e+01 1.345050723950587894e+02 2.399438108587923324e+01 2.246562629162260549e+01
2.536924105160418108e+01 1.345819355039895413e+02 2.396760602176193444e+01 2.247108593092120188e+01
2.539504845938276034e+01 1.346566086755492506e+02 2.397473538570131879e+01 2.266361809968077878e+01
2.547312764177965860e+01 1.350616184857859707e+02 2.398127543927551741e+01 2.266678504320462295e+01
2.547444531318393146e+01 1.350787257120824449e+02 2.398416955273621909e+01 2.266563763662617248e+01
2.547433523243342179e+01 1.352452611073674973e+02 2.398786107710312621e+01 2.266547088961926093e+01
2.548103680807354365e+01 1.352450651077517421e+02 2.398874218324919028e+01 2.266508840503778188e+01
2.551653138524902786e+01 1.352764623576474605e+02 2.398874218324919028e+01 2.266753924318895841e+01
2.553445640099664971e+01 1.352852717039072559e+02 2.399009882127205984e+01 2.266010708259880957e+01
2.552980493490694158e+01 1.352947085291956455e+02 2.400188098992241592e+01 2.268069138705530463e+01
2.547601296934822912e+01 1.354500831598120953e+02 2.402198452781117055e+01 2.265219045379154394e+01
2.556042822830633199e+01 1.359000431052176339e+02 2.403002123374839982e+01 2.262903613637822531e+01
2.556634360119567972e+01 1.360544601400483486e+02 2.402496061379496339e+01 2.260083379423964800e+01
2.561529468138907006e+01 1.362365566065144264e+02 2.406813244799851859e+01 2.250198024074425263e+01
2.561679423843661141e+01 1.362365027002675504e+02 2.406124762214958679e+01 2.255611166686709979e+01
2.561588790447052233e+01 1.366133564626827024e+02 2.405516020512853004e+01 2.259595610505365570e+01
2.561804338848693519e+01 1.370097939126981146e+02 2.404704125197940456e+01 2.261747300668618266e+01
2.562525785888600893e+01 1.370443804466276276e+02 2.405684972257172305e+01 2.262707962261542605e+01
2.563134818799821346e+01 1.370843090802153199e+02 2.407262551560172525e+01 2.264303288243085177e+01
2.562748028219706242e+01 1.370845024501311116e+02 2.410467210841912689e+01 2.273064004572194463e+01
2.560668563352936644e+01 1.371588955481925893e+02 2.416486645058066784e+01 2.274491856235537668e+01
2.560668563352936644e+01 1.371555957443953844e+02 2.423344901606865776e+01 2.272185873811482182e+01
2.559646552503683736e+01 1.373623910246178355e+02 2.437926424842224904e+01 2.283419770975494956e+01
2.559635596905151544e+01 1.375007886377383954e+02 2.447353666012330109e+01 2.271585310236395827e+01
2.559868465086437084e+01 1.375007217581057262e+02 2.450357326788073209e+01 2.274427425986985085e+01
2.564778771930240353e+01 1.375448669634749024e+02 2.448194367476568090e+01 2.275125943198555234e+01
2.564409023565467294e+01 1.375463095688139958e+02 2.446817088084843661e+01 2.275386741240951238e+01
2.564409023565467294e+01 1.375729519200631614e+02 2.447394949113034457e+01 2.275605471799051216e+01
2.564703927112054060e+01 1.379255267599149306e+02 2.447037773011277295e+01 2.276489034005753354e+01
2.566766146914048718e+01 1.378982473420166741e+02 2.446248569574235177e+01 2.274570120692797559e+01
2.581081226490943337e+01 1.378573472398189210e+02 2.447878182292572902e+01 2.287030433454799194e+01
2.580003769327477414e+01 1.377876353088331598e+02 2.447991451321673395e+01 2.292064981702841564e+01
2.582254128188004572e+01 1.378420119266982056e+02 2.446169606250554551e+01 2.298823573645539398e+01
2.585096311734630703e+01 1.378643670423942638e+02 2.446666634943140295e+01 2.301310585633423145e+01
2.585266184543477763e+01 1.379083958430378232e+02 2.445761716632262761e+01 2.301310585633422789e+01
2.585117597043506166e+01 1.379921261087023368e+02 2.445761716632262761e+01 2.301504680409850323e+01
2.585041662516097816e+01 1.379907299640088354e+02 2.447915694329359582e+01 2.301383976150390254e+01
2.587072127356326945e+01 1.379915282761952824e+02 2.447915694329359582e+01 2.301457364327028543e+01
2.587929934164368007e+01 1.379822758907824607e+02 2.451422679536107907e+01 2.301758592340889464e+01
2.589515075558354695e+01 1.381386112424763155e+02 2.471028251425708078e+01 2.301427395874521054e+01
2.589748280614158560e+01 1.384588462901522519e+02 2.486963057896918627e+01 2.303302865093613150e+01
2.590336737056398775e+01 1.385297578284175302e+02 2.489627729630273834e+01 2.290517466501499300e+01
2.595104257509511214e+01 1.391009053744798791e+02 2.489627729630273834e+01 2.290474738756527273e+01
2.600778877825639057e+01 1.395417180200960843e+02 2.489734535596916132e+01 2.291873328163764256e+01
2.603354161719836313e+01 1.398370871693200286e+02 2.489189885594104368e+01 2.292297934987607277e+01
2.605017946683667773e+01 1.399975571072581317e+02 2.488900081591061308e+01 2.292063281692236032e+01
2.605077862971468150e+01 1.400377610360862661e+02 2.490163573772613148e+01 2.292158268608092442e+01
2.606821044595119830e+01 1.412026965606535782e+02 2.496047647971487038e+01 2.292179600834494479e+01
2.612291008318941365e+01 1.421670973326810667e+02 2.510338886792775526e+01 2.291272020010234911e+01
2.614315690834600048e+01 1.422864535084067938e+02 2.528593337993278567e+01 2.292405485674043675e+01
2.620751895190384317e+01 1.421986053518107269e+02 2.546231776124080781e+01 2.288616066435881891e+01
2.621539466524200535e+01 1.420075438982028686e+02 2.545603137047091025e+01 2.287603093039039948e+01
2.619092206728123173e+01 1.419003420573749565e+02 2.547774412962024826e+01 2.288906327444422928e+01
2.623080497152916024e+01 1.418018370967034230e+02 2.546737843152292413e+01 2.290000282463253711e+01
2.640159803675525652e+01 1.416849794861827263e+02 2.546737843152292413e+01 2.290640572958093202e+01
2.662749263476377237e+01 1.418427295986650734e+02 2.551280239907797665e+01 2.290735618867539358e+01
2.664155164877599447e+01 1.418796764445141037e+02 2.553449345521463343e+01 2.290692895191710932e+01
2.664810899734536420e+01 1.418411688756124533e+02 2.555395161642126567e+01 2.290717129943179486e+01
2.665053914678648539e+01 1.417942576129231327e+02 2.557836410434410368e+01 2.290622083266563180e+01
2.666626147652495860e+01 1.418153495077314119e+02 2.559240790575202951e+01 2.289052905711978170e+01
2.678307682725042582e+01 1.417951555589964983e+02 2.559316265283364444e+01 2.287630253300370242e+01
2.677819175102006355e+01 1.417518934053440205e+02 2.560778218929548444e+01 2.309344183691216301e+01
2.677822099270970568e+01 1.416931269610492166e+02 2.567339353054829232e+01 2.311121792798564556e+01
2.679017229385430454e+01 1.416544974365445739e+02 2.598019570084873209e+01 2.305442786411130385e+01
2.691642167031864119e+01 1.416809540764036797e+02 2.654372028210060463e+01 2.308014068778997441e+01
2.695002583773156601e+01 1.418182575693271303e+02 2.693092459486675239e+01 2.308207599866567961e+01
2.698345521267428282e+01 1.418950811127715497e+02 2.731367528573185055e+01 2.308301922441787113e+01
2.698221123359608598e+01 1.418496437922916016e+02 2.758323962725189205e+01 2.308542569345816275e+01
2.697778193429546434e+01 1.416804125488065154e+02 2.777485615182190060e+01 2.309308650097495175e+01
2.699266289669099805e+01 1.419388194540169081e+02 2.777491501363053672e+01 2.311113170822331142e+01
2.709226481515339557e+01 1.421195009701343110e+02 2.799700484006099899e+01 2.314803409208173335e+01
2.708309099372519313e+01 1.421174339621990441e+02 2.826739732225800239e+01 2.302081883704787302e+01
2.711370800783984691e+01 1.421088603430483204e+02 2.854862436220699706e+01 2.301548960348613093e+01
2.714256069007489103e+01 1.421048807747292528e+02 2.902240010223825095e+01 2.311707981748945429e+01
2.716710581299374994e+01 1.421605784597122977e+02 2.935738262744822435e+01 2.311770418780474046e+01
2.738958012993990110e+01 1.422250756371745126e+02 2.945251989786950020e+01 2.311676237729190220e+01
2.746637000577977261e+01 1.422223933000707632e+02 2.946343694028921334e+01 2.311851174178054436e+01
2.748226478611977086e+01 1.422323795624611478e+02 2.946608259837739041e+01 2.312547926036369716e+01
2.750857911878399165e+01 1.424532004975669679e+02 2.948454168024998978e+01 2.310685879549284039e+01
2.749802223605179208e+01 1.424894948127756322e+02 2.951173731813155499e+01 2.306936050280064165e+01
2.747012382961530719e+01 1.424757934106703487e+02 2.954194674990798219e+01 2.307417667685772500e+01
2.746699374912367020e+01 1.430177947669450305e+02 2.973346369083828833e+01 2.314159064501642149e+01
2.747296467464694203e+01 1.439265340790224457e+02 2.999894279494527183e+01 2.313972767762932747e+01
2.748647729219586111e+01 1.439285041261806839e+02 3.026107160056297474e+01 2.315578850096691355e+01
2.757662112178355329e+01 1.444814998953153520e+02 3.042166815173682792e+01 2.318211747320575356e+01
2.759245930638294553e+01 1.443973986607792312e+02 3.061614490974326941e+01 2.318373789782063810e+01
2.759340080842516940e+01 1.443603276665719193e+02 3.082469111888064006e+01 2.318678623429397945e+01
2.762534110874286952e+01 1.444365007468680346e+02 3.099622297529811732e+01 2.318616372425973893e+01
2.771604314065048413e+01 1.445229467593295567e+02 3.110111525483288375e+01 2.317918557977202809e+01
2.780642038980204589e+01 1.445354326246682319e+02 3.124101164838294764e+01 2.315857413417713317e+01
2.792733084013577738e+01 1.445440112214961630e+02 3.134164481730974572e+01 2.319602330245807664e+01
2.789878262889617488e+01 1.445189516845455273e+02 3.149626303951627548e+01 2.321402650198463391e+01
2.790618103600704103e+01 1.444757297956996069e+02 3.156555122557499615e+01 2.351866805032783958e+01
2.790397248877655656e+01 1.444359013680463306e+02 3.182183649028445060e+01 2.348748596355468266e+01
2.791197081136333580e+01 1.443208120958304619e+02 3.204468877574564800e+01 2.348805415712800482e+01
2.792220216842502012e+01 1.441037549684254486e+02 3.211066486534340214e+01 2.349730484817733611e+01
2.792220216842502012e+01 1.437765098894809057e+02 3.214960866969299502e+01 2.349948928994368913e+01
2.792220216842502012e+01 1.435244956235694360e+02 3.222682480193168431e+01 2.350270409594418553e+01
2.792217412477758387e+01 1.436405473813017579e+02 3.223573054879319955e+01 2.351767601404338137e+01
2.794748776141424074e+01 1.438276579938643067e+02 3.227329553445695609e+01 2.352157794894250031e+01
2.799326143225184893e+01 1.439457108912939987e+02 3.248495576746871905e+01 2.351656949772885952e+01
2.799219841052858371e+01 1.439981773634652598e+02 3.275752661747219463e+01 2.350532160756037570e+01
2.798284957066379519e+01 1.439366123402937490e+02 3.296655504741735854e+01 2.365323189942926518e+01
2.800599476709225755e+01 1.440005262073719052e+02 3.315303976914332651e+01 2.365302517385132930e+01
2.800589463692240244e+01 1.440124587249311787e+02 3.335789637034084620e+01 2.365430342428578214e+01
2.801279445422035863e+01 1.441366930521163567e+02 3.353905457961507608e+01 2.366643869522503252e+01
2.802296181374122597e+01 1.443030946168515243e+02 3.366469317035875264e+01 2.367717869865787250e+01
2.802717384279761603e+01 1.443152116860866556e+02 3.368765938106118085e+01 2.367738521335308732e+01
2.802717384279761603e+01 1.443312929478565820e+02 3.368825444000325575e+01 2.369271537177995413e+01
2.801354241102682963e+01 1.442407859795557385e+02 3.370397638283054675e+01 2.367701876464837696e+01
2.795426987661096163e+01 1.442290565593493739e+02 3.367618134905439575e+01 2.361312097813793898e+01
2.799266794598898400e+01 1.441920189053471688e+02 3.370401373389227473e+01 2.369144198977438265e+01
2.806768009249070417e+01 1.441405483408468342e+02 3.385809772586757305e+01 2.368205165622645580e+01
2.809953434515239579e+01 1.440387339155686846e+02 3.393399936603994149e+01 2.369348563933790430e+01
2.818786035467039497e+01 1.439339808801243521e+02 3.400462441984029027e+01 2.369476170707029539e+01
2.833687375301656530e+01 1.439488713258982102e+02 3.407510309440601759e+01 2.369664682175190862e+01
2.834375907346093371e+01 1.440441570491493621e+02 3.418424676973881304e+01 2.370839476602141005e+01
2.851629813588010265e+01 1.441035891433658946e+02 3.440013976039048771e+01 2.371840399987974379e+01
2.853497250488247872e+01 1.441844531008804893e+02 3.458575185498211368e+01 2.371430035361598954e+01
2.855041321477500205e+01 1.442475551127297422e+02 3.464418147993106345e+01 2.371430035361598954e+01
2.853736767984039346e+01 1.442657557842470339e+02 3.464234980965348143e+01 2.371618391524048164e+01
2.855805003732571024e+01 1.444153872272619310e+02 3.464588839811152354e+01 2.369748305245752107e+01
2.853732429248402624e+01 1.443591939434409710e+02 3.464947648225581389e+01 2.371631630266762158e+01
2.854610860790659288e+01 1.443490685664441742e+02 3.463560243700690222e+01 2.371134898527520107e+01
2.853164175042156359e+01 1.443415796920623961e+02 3.462030357137843595e+01 2.370444045226220453e+01
2.852440557022002210e+01 1.442356317003534514e+02 3.460949126026556399e+01 2.370444045226220453e+01
2.854514069494839390e+01 1.441000714087262224e+02 3.459418084728121556e+01 2.370444045226220453e+01
2.855296015502418783e+01 1.439747647749424004e+02 3.457981002397784920e+01 2.370444045226220453e+01
2.855881370670705977e+01 1.438954758288112430e+02 3.458546838911392740e+01 2.370831164932483048e+01
2.856357467010036189e+01 1.438879473896267598e+02 3.458485725305799718e+01 2.370831164932483048e+01
2.858788767318073454e+01 1.438403360257476606e+02 3.458396483479588568e+01 2.373179698733701315e+01
2.858877122813079197e+01 1.436937466280283218e+02 3.454936754984667857e+01 2.373318283883372004e+01
2.858874309679246650e+01 1.435741725938199522e+02 3.452449286194366351e+01 2.373150667013884885e+01
2.858277016970886564e+01 1.435776180746846080e+02 3.452474170699034772e+01 2.373725534221493305e+01
2.858277016970886564e+01 1.435993011542883551e+02 3.452650322309513342e+01 2.373725534221493305e+01
2.858404259747733889e+01 1.435593210209632957e+02 3.453132522933921678e+01 2.373592579884294551e+01
2.866391237801285996e+01 1.440078796038605446e+02 3.454939491705171406e+01 2.373780764451885972e+01
2.872004444032771531e+01 1.454377300565434155e+02 3.456871224466423342e+01 2.374724250282920579e+01
2.871991953495690097e+01 1.458485408497458877e+02 3.456821652579720450e+01 2.374814073244846924e+01
2.871823453930270631e+01 1.458364234750701769e+02 3.456596138420569275e+01 2.371685730912743395e+01
2.870817704025107631e+01 1.459569443774430226e+02 3.460081770152837066e+01 2.373280826721056513e+01
2.873592115548758485e+01 1.477965622468939557e+02 3.460624413735762772e+01 2.373280826721056158e+01
2.872873642912961500e+01 1.492199573113462634e+02 3.461256276461480041e+01 2.379323952571775891e+01
2.872968305314903859e+01 1.492512766176557761e+02 3.460869245976218167e+01 2.376732798517419809e+01
2.873179644948082512e+01 1.492573826783787752e+02 3.461782844278940985e+01 2.376412051100379585e+01
2.873292011359790266e+01 1.492618976028376778e+02 3.462816705305666432e+01 2.376821555568510291e+01
2.873292011359790266e+01 1.492251815880952392e+02 3.464353339043809399e+01 2.377738508039753285e+01
2.875771070746764124e+01 1.491760492170241150e+02 3.468861276232301094e+01 2.379744171981891654e+01
2.875923774258280119e+01 1.491926669109443822e+02 3.476511354352807359e+01 2.381643673729366384e+01
2.878172221418306975e+01 1.492120574886627651e+02 3.482593629831650617e+01 2.380835518289418928e+01
2.878943293665922454e+01 1.492090067120614378e+02 3.482897072057110677e+01 2.387892523952542945e+01
2.878943293665922809e+01 1.492657348355609770e+02 3.480976502325746935e+01 2.384901459281238090e+01
2.876614741000954822e+01 1.493402138876196830e+02 3.483068407273103162e+01 2.383435230827228679e+01
2.889479325301357804e+01 1.491830089654984874e+02 3.483333314419392934e+01 2.384772673627777451e+01
2.887825783135816238e+01 1.490147949567424632e+02 3.484396002543911663e+01 2.384523839277305157e+01
2.886965154508102316e+01 1.490030011912511725e+02 3.485222313733227395e+01 2.385711812453838476e+01
2.887175469579912956e+01 1.500007996112020692e+02 3.484833253535094144e+01 2.386031309730681471e+01
2.887686386321061605e+01 1.501936075470590595e+02 3.485286234234426672e+01 2.386287382039677496e+01
2.889530520784300549e+01 1.500438855401978344e+02 3.486213520733345916e+01 2.386051771849983183e+01
2.891363780388761739e+01 1.497413790907509679e+02 3.486213520733345916e+01 2.386051771849983183e+01
2.891363780388761384e+01 1.496592855655805465e+02 3.489611109127203292e+01 2.382687335890949853e+01
2.902275583631573497e+01 1.496302269061969525e+02 3.489430826272959507e+01 2.396242395490999755e+01
2.902343218322738494e+01 1.499187707927195561e+02 3.489027498679823935e+01 2.388186852505845792e+01
2.906901178393237117e+01 1.501108096707228583e+02 3.488749215427212391e+01 2.383051578421061478e+01
2.909960338998452656e+01 1.498945132951836570e+02 3.488749215427212391e+01 2.384872015646775267e+01
2.911172780056860532e+01 1.499134478157312742e+02 3.488749215427212391e+01 2.385806369081205602e+01
2.913464087738853792e+01 1.505729093960795808e+02 3.487183317714168140e+01 2.387994168351711011e+01
2.914044912787720065e+01 1.506703468768821210e+02 3.486020438744441918e+01 2.391758084718249933e+01
2.914599299276659039e+01 1.506040136649750423e+02 3.488298941797275887e+01 2.394441657912851795e+01
2.918496636308493564e+01 1.504762714450354224e+02 3.494372178023399300e+01 2.395117177554182319e+01
2.932750621267343760e+01 1.504552030206997699e+02 3.500536412400818165e+01 2.394739602785331201e+01
2.931436754109491716e+01 1.504552030206997699e+02 3.501273497021333014e+01 2.403745294732460991e+01
2.943219698246121752e+01 1.504593650790803849e+02 3.504875665490003200e+01 2.402550507623466913e+01
2.944484606606730281e+01 1.504041142921296057e+02 3.511085158315587051e+01 2.405771485479958471e+01
2.945877896475682434e+01 1.503996615288744181e+02 3.513456207232984951e+01 2.406792006817743257e+01
2.945462544074188571e+01 1.504025761348521257e+02 3.519619695839877238e+01 2.407837930498737933e+01
2.945776273402987044e+01 1.503378214688505921e+02 3.535103353304396734e+01 2.407356091721464963e+01
2.944295528126208694e+01 1.500929179808294407e+02 3.546360681507732693e+01 2.407224994846787069e+01
2.946519489863250385e+01 1.502374537457287715e+02 3.546356071482951222e+01 2.406971150044895680e+01
2.951426443492026408e+01 1.505518491816025346e+02 3.546813356034397913e+01 2.407117961785098359e+01
2.960292340993366977e+01 1.505766009577849331e+02 3.546283900894567154e+01 2.395894583062544925e+01
2.960096264675186362e+01 1.505747196444343388e+02 3.546283900894567154e+01 2.399717747142035407e+01
2.959547181874955513e+01 1.505453021385921488e+02 3.548904612319692831e+01 2.405201679211491594e+01
2.959547181874955513e+01 1.505600818942391186e+02 3.558210250581602452e+01 2.404252353882272786e+01
2.959859418307563672e+01 1.505804416649120867e+02 3.579959115987777096e+01 2.404229263571824049e+01
2.958896824720995511e+01 1.506545036167189835e+02 3.591902363058326131e+01 2.405156097127263237e+01
2.955652667033795922e+01 1.507071991512017632e+02 3.595029746767610135e+01 2.406082573662380142e+01
2.952009653125136879e+01 1.507949239066089717e+02 3.595156054268574763e+01 2.407885598794465665e+01
2.967085674823696806e+01 1.509018127525311854e+02 3.595211813084729613e+01 2.409762918092797435e+01
2.975466625883071714e+01 1.509055103168866765e+02 3.596184698280107739e+01 2.413492885663524845e+01
2.968964645957238346e+01 1.508454429010037643e+02 3.599816392893391992e+01 2.411831308822222653e+01
2.967453251551570759e+01 1.508656945895918113e+02 3.610101226966355625e+01 2.408241632799426668e+01
2.960591599012601094e+01 1.508695516398189227e+02 3.605943552989146639e+01 2.409173423690190674e+01
2.959591701593986812e+01 1.509746511040843302e+02 3.612590565915820662e+01 2.410095732278792369e+01
2.959882196328764437e+01 1.509714230839730362e+02 3.620649929300537906e+01 2.409412388186888876e+01
2.959322489784442212e+01 1.509085532764792958e+02 3.629298372102243064e+01 2.409631891074191046e+01
2.956149463092823737e+01 1.511530250706216805e+02 3.630033969447667630e+01 2.410438719641809868e+01
2.952757757782373815e+01 1.515852843121652995e+02 3.630033969447667630e+01 2.410075443760031888e+01
2.950939078216287115e+01 1.518795227145515696e+02 3.630119119387680371e+01 2.410635923585679308e+01
2.949473087340176392e+01 1.518803187381432451e+02 3.634412219017538348e+01 2.410843176169237978e+01
2.949802533076407585e+01 1.520980029717681532e+02 3.632962149010637631e+01 2.410136125577788491e+01
2.949913667371300008e+01 1.523286817247493445e+02 3.628220238098011663e+01 2.411772346321638238e+01
2.951124574826347668e+01 1.529313476171579111e+02 3.622318092512581700e+01 2.418452616215951423e+01
2.948522931663240598e+01 1.529442930873852049e+02 3.618233129490690203e+01 2.418602379188260443e+01
2.948671867560714333e+01 1.529417951378889313e+02 3.618843481796911021e+01 2.418602379188260443e+01
2.950734634789104760e+01 1.529210542338758216e+02 3.620482373185097202e+01 2.419034195558587186e+01
2.949892359823319410e+01 1.528864524671822664e+02 3.622205858995867800e+01 2.418602379188260443e+01
2.949758085834157129e+01 1.528219290416136005e+02 3.624537805589009309e+01 2.418602379188260443e+01
2.952410397242224960e+01 1.527674339510878383e+02 3.626253465402548670e+01 2.418602379188260443e+01
2.954770612576210098e+01 1.527674339510878383e+02 3.626608045011756332e+01 2.414111753243508574e+01
2.955092771495337090e+01 1.527289214916414721e+02 3.622618270387316386e+01 2.414279236835522724e+01
2.955731828996668753e+01 1.527495584412602625e+02 3.617744321776207528e+01 2.399146471521718738e+01
2.957968264898052269e+01 1.526864832917438832e+02 3.614069513241823017e+01 2.403568694049561216e+01
2.955558151575433712e+01 1.527526274340313535e+02 3.613077409210047364e+01 2.408362293637548746e+01
2.957827275576448400e+01 1.527030126618331849e+02 3.614199407468269243e+01 2.409042272954499353e+01
2.957562089583918308e+01 1.524880498530949922e+02 3.614932416538930227e+01 2.409446231664400528e+01
2.955560872684572971e+01 1.525451556097406467e+02 3.615636368461849770e+01 2.409637108794969507e+01
2.951704908581478648e+01 1.521816415340562116e+02 3.615878112346155149e+01 2.411654934925070748e+01
2.953224362649067913e+01 1.519770018259341384e+02 3.617544611935559118e+01 2.414734237264033112e+01
2.956275319002611823e+01 1.519724299864945465e+02 3.620684367152706074e+01 2.414001613438106020e+01
2.955946594670477978e+01 1.519736444914051390e+02 3.620172105983912303e+01 2.413436339789204155e+01
2.959752234249345904e+01 1.519336313921311898e+02 3.619986763752596204e+01 2.413837765954548331e+01
2.966471147498993233e+01 1.519379127801879008e+02 3.619462727663318447e+01 2.405161843885309025e+01
2.966738247999643718e+01 1.519952997299587309e+02 3.618076381745414949e+01 2.405030627403411359e+01
2.967386886562653103e+01 1.524036971073864208e+02 3.613986624234239287e+01 2.404099861004484140e+01
2.969768943494425173e+01 1.526789299281337833e+02 3.612125435937129225e+01 2.401921006933501701e+01
2.966932494301816092e+01 1.525140731735926920e+02 3.611600259184838535e+01 2.400872505586621131e+01
2.960668194334514425e+01 1.515628273819144169e+02 3.610088887125079538e+01 2.402544507769858839e+01
2.958268221535023912e+01 1.510685906070483497e+02 3.608237529230024876e+01 2.402607399822488787e+01
2.957677548642514509e+01 1.512882023027571847e+02 3.606475462407029653e+01 2.396866114536878456e+01
2.960067418986262666e+01 1.516136845142943628e+02 3.598576190904396555e+01 2.382911243741244789e+01
2.954621520016395309e+01 1.515876060500989126e+02 3.607886030592429449e+01 2.371705013434100451e+01
2.946328709452492944e+01 1.514616009290803333e+02 3.613785583255320688e+01 2.374440174149501104e+01
2.944102875400924546e+01 1.511514527485594215e+02 3.613097122877268674e+01 2.387120334869703697e+01
2.938570350654207530e+01 1.508754429454972126e+02 3.613097122877268674e+01 2.387206919298879271e+01
2.939366620505851913e+01 1.506485544968818715e+02 3.612361848118761998e+01 2.387206919298879626e+01
2.940840312044160143e+01 1.502344840973602231e+02 3.611652731277468575e+01 2.387206919298879626e+01
2.945645434763660120e+01 1.502082642599933138e+02 3.612042366327393950e+01 2.386799196654056132e+01
2.949172269797746537e+01 1.502380690903606535e+02 3.612557658411004269e+01 2.389061462097989263e+01
2.938987109897556493e+01 1.500292759563945140e+02 3.612389304400066692e+01 2.390337280932361352e+01
2.924206752769713802e+01 1.499026715572473734e+02 3.611330666685618951e+01 2.364755669595018261e+01
2.924082083414211297e+01 1.498953879877562372e+02 3.611330666685618951e+01 2.372158571614002298e+01
2.923938227552694613e+01 1.498740781189328288e+02 3.611620274855040691e+01 2.377806415182233124e+01
2.922403546696450860e+01 1.496991030166847167e+02 3.612809428041285287e+01 2.372740435041680485e+01
2.923001347680837725e+01 1.496777603386688327e+02 3.613520851488752328e+01 2.373109426178050896e+01
2.922355132721551030e+01 1.496716724968354981e+02 3.613520851488752328e+01 2.373125352121498111e+01
2.922627532092311498e+01 1.496575258782530682e+02 3.614737157158733538e+01 2.373614139678516466e+01
2.918468929583454141e+01 1.494252133342963873e+02 3.616775578791694556e+01 2.371113996377043875e+01
2.916181554317905267e+01 1.495106977710959200e+02 3.619099218996903744e+01 2.371113996377043875e+01
2.916862984533896963e+01 1.496883979071189970e+02 3.623654857315194278e+01 2.369581272675642225e+01
2.913883269066211668e+01 1.499792403901286377e+02 3.624231825276081764e+01 2.370668985261709238e+01
2.919055537694339719e+01 1.500486219463544160e+02 3.625461725979740635e+01 2.375329784447158232e+01
2.916857906197007466e+01 1.501092588350231836e+02 3.621794747821029858e+01 2.376634662896631056e+01
2.912263496619766556e+01 1.505163362695225544e+02 3.621461900413146395e+01 2.377962170896567429e+01
2.909770323881936349e+01 1.509979583040777129e+02 3.621149609964216864e+01 2.377576181313324355e+01
2.914276907938569394e+01 1.510564343416062059e+02 3.621137683345387615e+01 2.378447151192372999e+01
2.933313012984463342e+01 1.509931304530109628e+02 3.621844943139338824e+01 2.378145340963930110e+01
2.932905442482588754e+01 1.509558002462972013e+02 3.622048245087853502e+01 2.377441586653276673e+01
2.932886753515039757e+01 1.505027849443324612e+02 3.621705000927601503e+01 2.377248124438938248e+01
2.932335824448487216e+01 1.503631474929943863e+02 3.621416199243605405e+01 2.374400041515424675e+01
2.936847236637273184e+01 1.502592318761146259e+02 3.620520530551373639e+01 2.381837148830383200e+01
2.935625177461180613e+01 1.500925249970830180e+02 3.627337728106386550e+01 2.376611304262531377e+01
2.932909447245855361e+01 1.495215292992951959e+02 3.635323923523734635e+01 2.385955684377879749e+01
2.935941508161221947e+01 1.490927173942442892e+02 3.634970194120441533e+01 2.388515746165760945e+01
2.940066973955523721e+01 1.489805229820327668e+02 3.632411577801172342e+01 2.387194106969194252e+01
2.943198769798599557e+01 1.487866560011347019e+02 3.630417624260878284e+01 2.386199623910046697e+01
2.942623699242563617e+01 1.478778385154448927e+02 3.630202894184290585e+01 2.385736684397878449e+01
2.943305946744916568e+01 1.477137220572279546e+02 3.630405728089355222e+01 2.385929458320547525e+01
2.944443093853910653e+01 1.476465138498027727e+02 3.630001280019609311e+01 2.386059845424763992e+01
2.945124919887777892e+01 1.475838463924829398e+02 3.624192075945202873e+01 2.383870270928163393e+01
2.955014453322350576e+01 1.475668609546194716e+02 3.616169353355011395e+01 2.384672680225760999e+01
2.955968824487834823e+01 1.475823685268670431e+02 3.614406630159921718e+01 2.371184575484396007e+01
2.947613929154222134e+01 1.475716191006929137e+02 3.612768851745708076e+01 2.368149897694072692e+01
2.948019466174535097e+01 1.474610629420525925e+02 3.614119846400227232e+01 2.367894534324064892e+01
2.948988337471681120e+01 1.472907020147571870e+02 3.616306917968108792e+01 2.367620509868176626e+01
2.948909607862538351e+01 1.473799215497144814e+02 3.615163527828859458e+01 2.367559545709838886e+01
2.948766963214283976e+01 1.473798414302308686e+02 3.610635920076130390e+01 2.367324898096677899e+01
2.948126395957946499e+01 1.473988832386459933e+02 3.608918989191085558e+01 2.367388725793698612e+01
2.948066811479005622e+01 1.474841257491802082e+02 3.613298662461215116e+01 2.368303741967045895e+01
2.948178011203528115e+01 1.475163693289663343e+02 3.613969984621344622e+01 2.366809523461582998e+01
2.947196989436571712e+01 1.473569611385902647e+02 3.609084356806308591e+01 2.372646938831912777e+01
2.938658034161850097e+01 1.473338749778882288e+02 3.608369294867697619e+01 2.372530690679282372e+01
2.939940669629914538e+01 1.469238003456213448e+02 3.600311313892731846e+01 2.373841753967980850e+01
2.954336981480614810e+01 1.464780264340013787e+02 3.602038512862404929e+01 2.377031879371508438e+01
2.952418488247218420e+01 1.464761305469256456e+02 3.605963669054917631e+01 2.376543794746574179e+01
2.951564611819295791e+01 1.460640342452583695e+02 3.608885889266105096e+01 2.375875094994497516e+01
2.952418488247218420e+01 1.460178193920180547e+02 3.614721636882155309e+01 2.375554231770300007e+01
2.957663155152051715e+01 1.460376692911798386e+02 3.618925425059767065e+01 2.375940518857415995e+01
2.961921285136387638e+01 1.456417845674791351e+02 3.608332648543369459e+01 2.375750648380797259e+01
2.960324545745616476e+01 1.446315804103654727e+02 3.591365353531161730e+01 2.373813659595415615e+01
2.941868957541105800e+01 1.446033072235902068e+02 3.557754049529562934e+01 2.375562805753992279e+01
2.947424120981571960e+01 1.445899300366384637e+02 3.530160826045182176e+01 2.378938399611987720e+01
2.946329894384536274e+01 1.446220409896085357e+02 3.515277545364520506e+01 2.388211882688617749e+01
2.956319381417371872e+01 1.446261870201935835e+02 3.504373978921771027e+01 2.390790595670905816e+01
2.957345825997357736e+01 1.446211850179634268e+02 3.500151368175955469e+01 2.390917058051529054e+01
2.957234971006530344e+01 1.446534448812056723e+02 3.496690312644803100e+01 2.391251665066180010e+01
2.957345825997357736e+01 1.447828659614113462e+02 3.494615902920378403e+01 2.393111522979050676e+01
2.957733785746106392e+01 1.449600717025209065e+02 3.494489844561579872e+01 2.395107230184439473e+01
2.957443079983788081e+01 1.449455640024902721e+02 3.491485366451363603e+01 2.394817743896553353e+01
2.957237762261261693e+01 1.451258016067439485e+02 3.487492839296449887e+01 2.396369643345626343e+01
2.956373573982826741e+01 1.451170175685815593e+02 3.483208656417816940e+01 2.395061794014602086e+01
2.958825763059391889e+01 1.451063553811479778e+02 3.479691815799785815e+01 2.392508736720051488e+01
2.960639597949063884e+01 1.450271958633966278e+02 3.481264464550777404e+01 2.392720417449931603e+01
2.962823756105650475e+01 1.443315406001058534e+02 3.485141756448941663e+01 2.394372992124474919e+01
2.961885170249514587e+01 1.431628739163894011e+02 3.489142940285481131e+01 2.392568911347892779e+01
2.958629732856748618e+01 1.425610414243667492e+02 3.492579308898226742e+01 2.392273493133350470e+01
2.956442476244717454e+01 1.423107987048067002e+02 3.496666748339626452e+01 2.393073084790441740e+01
2.956988913902788951e+01 1.423113314813687396e+02 3.503256155313798104e+01 2.395254246730766923e+01
2.956988913902788951e+01 1.417962388076637694e+02 3.507045362943572542e+01 2.394730021766220318e+01
2.952219782086692135e+01 1.398549245325312143e+02 3.507532631600740558e+01 2.395822061022432337e+01
2.947879832582053439e+01 1.385521127229751812e+02 3.498377083640929186e+01 2.407241763418963743e+01
2.948848605972167647e+01 1.386258891405209965e+02 3.477199260805169700e+01 2.424304896738123105e+01
2.949102411538805057e+01 1.387688588264673228e+02 3.476648615915047458e+01 2.425070156032970559e+01
2.948492352668392869e+01 1.387833512061155545e+02 3.477178737790741536e+01 2.438138506719510090e+01
2.950640924840567081e+01 1.393849823044076004e+02 3.477178737790741536e+01 2.438138506719510090e+01
2.952787933622053274e+01 1.394378132788951064e+02 3.478460633346885800e+01 2.438422850030002920e+01
2.961128230412184692e+01 1.395101506701215612e+02 3.479089256708429900e+01 2.439313933455150973e+01
2.963878907402256857e+01 1.394315382831302372e+02 3.480013496546244767e+01 2.441481100824205441e+01
2.971086910365294997e+01 1.394087732533358803e+02 3.480183556559052960e+01 2.448018369174362974e+01
2.975953355841451398e+01 1.393984655439220433e+02 3.480188254239132561e+01 2.452696977794397881e+01
2.975750417246714363e+01 1.394789285161024566e+02 3.480188254239132561e+01 2.450566944106697775e+01
2.979820769399394109e+01 1.394888987554207347e+02 3.474334890039246204e+01 2.456229917322163203e+01
2.978235790823822171e+01 1.394584657451817122e+02 3.471246183626857373e+01 2.456424432995060769e+01
2.975317539514731635e+01 1.394947954441312277e+02 3.470319608817611368e+01 2.456478761767564478e+01
2.975343111398078122e+01 1.394587655043598033e+02 3.469783193247673125e+01 2.457444804306926045e+01
2.977326873042997946e+01 1.393556773296302254e+02 3.469783193247673125e+01 2.460167072662973808e+01
2.968078309233770185e+01 1.393184349179964556e+02 3.469783193247673836e+01 2.463534995262249438e+01
2.962735571350233954e+01 1.393087170424019803e+02 3.468774856479449653e+01 2.464177221511290838e+01
2.993662890330839943e+01 1.391273198333095706e+02 3.467017169173528401e+01 2.463513475522667306e+01
2.996881012810484890e+01 1.391320830146663639e+02 3.465361690811512574e+01 2.461081355572878948e+01
3.002340063108107771e+01 1.390580511441175418e+02 3.457806417043039460e+01 2.455333863370744751e+01
2.994878790759986131e+01 1.389800451719598868e+02 3.451090825832322651e+01 2.462124255911638571e+01
2.995128695756493897e+01 1.388189313170217929e+02 3.455422715695436153e+01 2.479047990784992095e+01
2.996785354766669940e+01 1.387488611412721298e+02 3.455076861220893392e+01 2.482474506740221543e+01
2.996785354766669940e+01 1.387733438524849419e+02 3.455240380891613228e+01 2.481941803846692451e+01
2.994573844830678766e+01 1.387767846147186788e+02 3.455322070798035128e+01 2.482053727450000125e+01
2.991998167670561060e+01 1.389044404041858343e+02 3.456152699888131252e+01 2.481926576153111696e+01
2.991167512016669860e+01 1.391673658728942655e+02 3.456021312223641928e+01 2.481887143676851792e+01
2.990566034205563994e+01 1.392068971998155575e+02 3.455740371055676263e+01 2.482279247858395621e+01
2.986941052539201635e+01 1.391415274459785962e+02 3.455531629394241833e+01 2.485812827027632110e+01
2.981129243247262295e+01 1.392986330586198278e+02 3.459580346132175066e+01 2.490551580530259557e+01
2.979099563315062227e+01 1.401645193478007343e+02 3.471119928113118647e+01 2.493048682680526440e+01
2.977898787827416172e+01 1.405848826723556897e+02 3.476076154997761591e+01 2.498816154651726507e+01
2.985740453044101272e+01 1.403885295456861968e+02 3.489239579986450224e+01 2.509579288157367927e+01
2.981782449499626964e+01 1.395838377893372808e+02 3.493317682682756242e+01 2.508147101018686698e+01
2.976450126197984147e+01 1.394807346553638467e+02 3.493850484972707449e+01 2.506242406116198040e+01
2.973209889957988494e+01 1.395249949077226006e+02 3.495674000152763483e+01 2.501162017905899404e+01
2.972989358901910606e+01 1.395249949077226006e+02 3.503507527970222668e+01 2.497141153415596548e+01
2.971771622474377850e+01 1.395895720030691223e+02 3.508241412010299598e+01 2.485071658218688029e+01
2.973951126724175609e+01 1.398526853371075731e+02 3.506800996256277614e+01 2.477060871022035826e+01
2.979273713934991008e+01 1.398270090504692860e+02 3.502434931321925404e+01 2.475678956208803783e+01
2.978822662755202089e+01 1.396658880185137548e+02 3.508613121126924028e+01 2.476452598122654436e+01
2.978439509566040044e+01 1.396309607930849381e+02 3.508148643621592555e+01 2.478143541460377008e+01
2.974047799774575296e+01 1.396279589050847108e+02 3.510456134712983101e+01 2.479833331781616224e+01
2.962834423477625378e+01 1.396185922146474923e+02 3.512513533090515949e+01 2.475197757987923808e+01
2.947423138428548128e+01 1.396119152078361196e+02 3.512513533090515949e+01 2.469575511125028200e+01
2.941244145212021266e+01 1.396003745696981468e+02 3.511863209201636948e+01 2.462979717080196451e+01
2.946665711909648167e+01 1.395829298589194423e+02 3.512420365523468746e+01 2.462314632877321330e+01
2.967985990287688836e+01 1.397383123270065539e+02 3.525886007480108475e+01 2.461431876140751385e+01
2.965354998266479924e+01 1.392829444978818287e+02 3.538516405295306555e+01 2.465565016586484504e+01
2.945329925720375996e+01 1.388114616161073229e+02 3.540586380833550351e+01 2.464113514014410455e+01
2.946219191327080367e+01 1.384730989470519376e+02 3.543989406325027147e+01 2.467514729347820079e+01
2.947060252411544212e+01 1.383320173929377290e+02 3.575363648322226595e+01 2.457072498255145021e+01
2.957217607167926232e+01 1.384035634078834960e+02 3.605342438790525961e+01 2.473413120760146811e+01
2.957473198820911620e+01 1.384171007209731670e+02 3.622832436663890121e+01 2.472453317405295081e+01
2.957927505559254655e+01 1.384012560492137709e+02 3.625443081134224599e+01 2.469767069357307321e+01
2.956734236847132635e+01 1.381939218200280379e+02 3.625916355149966819e+01 2.462985059979411062e+01
2.953725061027853371e+01 1.365897424406387302e+02 3.633051747518058505e+01 2.458317716125219476e+01
2.955910139659863844e+01 1.365461367743519077e+02 3.671110410780914890e+01 2.457001153781125780e+01
2.949021629243162224e+01 1.364241784582191315e+02 3.699846691978468272e+01 2.458153053401770904e+01
2.966160593923396149e+01 1.364310114746644444e+02 3.705193429572067032e+01 2.453717730210312808e+01
2.963897849816014585e+01 1.362965389876060840e+02 3.705349713285375657e+01 2.451440715514405966e+01
2.957835490513966192e+01 1.360536000699724752e+02 3.711152099300703355e+01 2.449303975326143146e+01
2.947635641822780173e+01 1.358629118045098210e+02 3.741344508721967088e+01 2.452035281709553516e+01
2.949825231186416019e+01 1.359045134938498336e+02 3.768122196976103311e+01 2.452035281709553161e+01
2.951012974038575010e+01 1.359064705008559031e+02 3.779236603567447617e+01 2.452015340207951155e+01
2.949800765364331312e+01 1.359630454057278541e+02 3.781623771892705577e+01 2.452939525674270271e+01
2.949532131058075990e+01 1.358332094445243001e+02 3.782719115998968107e+01 2.455601482288018644e+01
2.950124434823723618e+01 1.352201878862767899e+02 3.798805023286141136e+01 2.461171401714052465e+01
2.949237386739832090e+01 1.344590155698010392e+02 3.818325886372719680e+01 2.461725714226055217e+01
2.949779313261247182e+01 1.340348331293026263e+02 3.844743888914320706e+01 2.461657104055812439e+01
2.954255026253487770e+01 1.339660198856411739e+02 3.864094429713644274e+01 2.483345636800305201e+01
2.955876705707461483e+01 1.336141715986743748e+02 3.870455976670451292e+01 2.490072192329996170e+01
2.954667745812377433e+01 1.328263430649206782e+02 3.871527821021568627e+01 2.494289972092615670e+01
2.952942915557968462e+01 1.330598469712031715e+02 3.871589452633635631e+01 2.494527857066699639e+01
2.935301994436687778e+01 1.330650686093086108e+02 3.872008327282370033e+01 2.494591112376625119e+01
2.933824080367464049e+01 1.334422297025945454e+02 3.873621310368892523e+01 2.494628516542783103e+01
2.940059950433663261e+01 1.335514341817413992e+02 3.880253171140256541e+01 2.495521776158601313e+01
2.943180463400774016e+01 1.333513586732433964e+02 3.887768815367500252e+01 2.497635698405283122e+01
2.940428742640092352e+01 1.332490431785534781e+02 3.893683214867898812e+01 2.508403897052555465e+01
2.933295116987718743e+01 1.331273510440285577e+02 3.901210611713243281e+01 2.540887922245905628e+01
2.943590101923838631e+01 1.331335787695952035e+02 3.902405837652462139e+01 2.540821449705150314e+01
2.942712376319505907e+01 1.331071857263912364e+02 3.905865091390640487e+01 2.539583562046170329e+01
2.942712376319506262e+01 1.328460454661711196e+02 3.908343076054610776e+01 2.546672879886313368e+01
2.943168961535167227e+01 1.322941321298870321e+02 3.911479261678887553e+01 2.548367867285866595e+01
2.943482935324068706e+01 1.321468809015181023e+02 3.912727118333710052e+01 2.557736325597652893e+01
2.954994292269275391e+01 1.319510478776125808e+02 3.912043374829070075e+01 2.569929180830044402e+01
2.952848887725884808e+01 1.318838592246981989e+02 3.912185691112325259e+01 2.584148988651476841e+01
2.956768817500616819e+01 1.318968267851809060e+02 3.912052297214854946e+01 2.583385397873970035e+01
2.956813302754165207e+01 1.318716426074992683e+02 3.910943089146660157e+01 2.582780728404003767e+01
2.958535876568677736e+01 1.318742600358387449e+02 3.911772261078604629e+01 2.582715362575168072e+01
2.952699980720018047e+01 1.317607300678013758e+02 3.913480027819743867e+01 2.589216545974563388e+01
2.955609881182561693e+01 1.319272593969874663e+02 3.919014443880504928e+01 2.583527137503130078e+01
2.955849502011899688e+01 1.321056415903575783e+02 3.919986867955557841e+01 2.582135966020208784e+01
2.936762483304361027e+01 1.320302587288232701e+02 3.921809283091673137e+01 2.582135966020208784e+01
2.942821794968903149e+01 1.320204742454745883e+02 3.923999230395442339e+01 2.582135966020208784e+01
2.932569727209225974e+01 1.313076916406651549e+02 3.925131038034783870e+01 2.581840736389792212e+01
2.920468780477543902e+01 1.312028326675914514e+02 3.926750115826575183e+01 2.580921255846792306e+01
2.897999876353342685e+01 1.312626696513521836e+02 3.928920297097413084e+01 2.582787219797335609e+01
2.896151305740773907e+01 1.310883843977032654e+02 3.930054847472744939e+01 2.595789316325277341e+01
2.890403114886224500e+01 1.310933766900525654e+02 3.931110441814630718e+01 2.605504658746257363e+01
2.888750101504799517e+01 1.310160678237597551e+02 3.932029925235058698e+01 2.606634515503682437e+01
2.877250027672949528e+01 1.311239096274970564e+02 3.932029925235058698e+01 2.609850000865014863e+01
2.876609096026776768e+01 1.310993825309639647e+02 3.933257406901310560e+01 2.611762696076180390e+01
2.872792734630187539e+01 1.310869514635229223e+02 3.934472261453119302e+01 2.610678573924498025e+01
2.878481210941629342e+01 1.311510059892794686e+02 3.934308208178919841e+01 2.610521127606858727e+01
2.891233222025505967e+01 1.312418580636529271e+02 3.933071355384240064e+01 2.610366206917167275e+01
2.918542092782625730e+01 1.309405315553592004e+02 3.930686552161596836e+01 2.610966290363611719e+01
2.938161773106441998e+01 1.302619930601402132e+02 3.929779956199077873e+01 2.608896453461077058e+01
2.939768357701672841e+01 1.290754087345843288e+02 3.931318155344848719e+01 2.608423678638457943e+01
2.933116680144857114e+01 1.283324783677148844e+02 3.937900204949843896e+01 2.609161342414158469e+01
2.941783234187044371e+01 1.283884735169010582e+02 3.939264912562244092e+01 2.610068254499956808e+01
2.941049936900763839e+01 1.284234940343861240e+02 3.939349029490028187e+01 2.611271039235194280e+01
2.944904690366733746e+01 1.273868162566283928e+02 3.939982556730933538e+01 2.610981694883194493e+01
2.943651755242795076e+01 1.250518962831032326e+02 3.941207561565874329e+01 2.610875298199523797e+01
2.980572853151553048e+01 1.240309558940831778e+02 3.944789504770061228e+01 2.611051450191751755e+01
2.990616387593699343e+01 1.240332938045265649e+02 3.952494095851886868e+01 2.611113572267928973e+01
2.991156582217652371e+01 1.241726598732587661e+02 3.957844965551837646e+01 2.611289708186700764e+01
2.994059395560480397e+01 1.244590142818108802e+02 3.962238390827087642e+01 2.610121892392853482e+01
2.999846154479257265e+01 1.246938562239535742e+02 3.965248048350068188e+01 2.608613695244107689e+01
3.019231779930780490e+01 1.246554875647277925e+02 3.965468245559914351e+01 2.606883895908762838e+01
3.020790868918930627e+01 1.248456721076065463e+02 3.964503891301410476e+01 2.601627369439197324e+01
3.021973375948899232e+01 1.254625387436425399e+02 3.969897333300198028e+01 2.603571522930591087e+01
3.019804983396111453e+01 1.254711214742261234e+02 3.969826232184983894e+01 2.598194814317903933e+01
3.020133238938969100e+01 1.254523015173496390e+02 3.970500025153510393e+01 2.599577391875158128e+01
3.021636984706135820e+01 1.254496450533041809e+02 3.970931851359831910e+01 2.600413253071220865e+01
3.022112878656915669e+01 1.255205403270716005e+02 3.970415367105061932e+01 2.600847310720446970e+01
3.021658169969592933e+01 1.255096861122678717e+02 3.968599624873240117e+01 2.600847310720446970e+01
3.020424949199034259e+01 1.255081449627871990e+02 3.969031657840992722e+01 2.602019289055158779e+01
3.021282760177204807e+01 1.254580387380577804e+02 3.967273923306029815e+01 2.611827222223638501e+01
3.017555283891910634e+01 1.255364097144728959e+02 3.967088313227223750e+01 2.628986350633094204e+01
3.019104583306777201e+01 1.256662194386383504e+02 3.965949242053410018e+01 2.614525200761146451e+01
3.016965274467703750e+01 1.254154678020219791e+02 3.966418557054212357e+01 2.626687910471115472e+01
3.016282462128503639e+01 1.247015842240988093e+02 3.962199109401750263e+01 2.625140186189767633e+01
3.017642602056113077e+01 1.243143643027627405e+02 3.958362621507031776e+01 2.624235876964653968e+01
3.016695780509527580e+01 1.242445541824671409e+02 3.959214119209016047e+01 2.624406089070143366e+01
3.012441378308296436e+01 1.242058994251078872e+02 3.977976747461455886e+01 2.624613550794690298e+01
3.012943311272880464e+01 1.225936835730128820e+02 4.012140850985171880e+01 2.624592399151109845e+01
3.011345055509911006e+01 1.213389208292211947e+02 4.050220794789343159e+01 2.625384755513328727e+01
3.011333142935863805e+01 1.211646079513321013e+02 4.077603136959753272e+01 2.621977413343177332e+01
3.012444611033369313e+01 1.211998574091570902e+02 4.077024538378941543e+01 2.611115965728404831e+01
3.015829016132046547e+01 1.212838428315990171e+02 4.079503654532499723e+01 2.616913870308901480e+01
3.017536454020727632e+01 1.213204197322116613e+02 4.093572370649384595e+01 2.609642351756611944e+01
3.011125317641891996e+01 1.213828396603078801e+02 4.100871467986289076e+01 2.609642351756611944e+01
3.012052459328021925e+01 1.213843468821248450e+02 4.101016799007780378e+01 2.609521417338521942e+01
3.013570105529981902e+01 1.215685557535336301e+02 4.101442742858179002e+01 2.609521417338521942e+01
3.012854280469599288e+01 1.216805268726266291e+02 4.100450747533010087e+01 2.609521417338521942e+01
3.012840933627925111e+01 1.218496199583733244e+02 4.101103079531654316e+01 2.609873075192568592e+01
3.011482595690034358e+01 1.221522726927338454e+02 4.107480128758265892e+01 2.615167995486162766e+01
3.014529175865442667e+01 1.219946987208870866e+02 4.107304509985109320e+01 2.620509879104023199e+01
3.020752369881381938e+01 1.217126058385079830e+02 4.107459000226784696e+01 2.633317349114695816e+01
3.020504584890409916e+01 1.217004797854142026e+02 4.106287786327697376e+01 2.627978471921294101e+01
3.021056844242422557e+01 1.222008762489042368e+02 4.112623602925998512e+01 2.630322133240549221e+01
3.020281760389912051e+01 1.222197146617517092e+02 4.116032968204217468e+01 2.630322133240549221e+01
3.022502293951815489e+01 1.222449759949258947e+02 4.121724049392926048e+01 2.630377007366392661e+01
3.025781759239087521e+01 1.223542619936061158e+02 4.122999904552996497e+01 2.630991950186934147e+01
3.026963539942955350e+01 1.224983851158863501e+02 4.122474658957168003e+01 2.630144699862559676e+01
3.026190319220518887e+01 1.225663488401282422e+02 4.121403895002772089e+01 2.629730772699323538e+01
3.025260689088460353e+01 1.226381845103718433e+02 4.120293359476242756e+01 2.626887550406712890e+01
3.024328184067328706e+01 1.226469722903912896e+02 4.117773026496728050e+01 2.629782695778325063e+01
3.030463548459869827e+01 1.228546520568106359e+02 4.116018079861168388e+01 2.629902698494460722e+01
3.022497285647083487e+01 1.229167909278468329e+02 4.115565824348338708e+01 2.659856829194968952e+01
3.017984735306655963e+01 1.230555117172733759e+02 4.117082064392695884e+01 2.651467096347814945e+01
3.003893474033989008e+01 1.229913134005812907e+02 4.116182722103577873e+01 2.646221967979086998e+01
3.017883615274781661e+01 1.229883319506367059e+02 4.115415723562325923e+01 2.651467096347814589e+01
3.027115087892098089e+01 1.229717598963274554e+02 4.114770097313338937e+01 2.647648340159328129e+01
3.028296348269763527e+01 1.232079108336798612e+02 4.113834780948795355e+01 2.646577945413368127e+01
3.031017700269001480e+01 1.234991866693866314e+02 4.112195643223218866e+01 2.646808810589671523e+01
3.031154762948270331e+01 1.235895079203732649e+02 4.111902492635741169e+01 2.648990783993364317e+01
3.034582219440426698e+01 1.235701489357361140e+02 4.111785094012577702e+01 2.647059905797709334e+01
3.007190281200041326e+01 1.235493698405621217e+02 4.111795597466394270e+01 2.643189578031646292e+01
3.040624894218947105e+01 1.232778952286256668e+02 4.112083116687212936e+01 2.635839630291476965e+01
3.068538036809056990e+01 1.231493208588663180e+02 4.109675210736734385e+01 2.631919697017453430e+01
3.074557819027637606e+01 1.231198276964356495e+02 4.109148261932637780e+01 2.634991175864119839e+01
3.069759130378795930e+01 1.231050299378543116e+02 4.104087148020131792e+01 2.634725451063502533e+01
3.070524445391044566e+01 1.230999673598657296e+02 4.099164164771157459e+01 2.636906436530335185e+01
3.083043185189591284e+01 1.230690541931642770e+02 4.094323741980355180e+01 2.640315538481801028e+01
3.080115256827896530e+01 1.221365090216680613e+02 4.088750938091487797e+01 2.645778818032309232e+01
3.079836102675592002e+01 1.220167381796448609e+02 4.085337053236123950e+01 2.650783257293671014e+01
3.079836102675591647e+01 1.219350363595304145e+02 4.084120219403931173e+01 2.651972566741300952e+01
3.079836102675591647e+01 1.219436169875242086e+02 4.084160402744242901e+01 2.651145389666218222e+01
3.077293621113197730e+01 1.219056726653850262e+02 4.084241535480487784e+01 2.651834319777244886e+01
3.077818602865343678e+01 1.217540469799669722e+02 4.083685255861917796e+01 2.649843412898539086e+01
3.077381995421428940e+01 1.217745686258013649e+02 4.084776820359224558e+01 2.648947536981768636e+01
3.079159878431773834e+01 1.221647479267239618e+02 4.085933173822598974e+01 2.653160622618824860e+01
3.083458643040956559e+01 1.223520696514775210e+02 4.086015278305260523e+01 2.656183456480703242e+01
3.086126072626323591e+01 1.223913587309169628e+02 4.083955972552105607e+01 2.657039201683290131e+01
3.062707165653284491e+01 1.228606783800252629e+02 4.082432668709186885e+01 2.660293183006046647e+01
3.063294478587387815e+01 1.235900371227390053e+02 4.079965717324596142e+01 2.660071062073676273e+01
3.067087572819526642e+01 1.234872282788791296e+02 4.077210315907680638e+01 2.660583935670596745e+01
3.075576967813352525e+01 1.234453330507071200e+02 4.076328941405981254e+01 2.653617363992362854e+01
3.069348297496388156e+01 1.233531493396095016e+02 4.075796558237912137e+01 2.652760514950751514e+01
3.068379220654444595e+01 1.232518562132027569e+02 4.071858346080326641e+01 2.636505144684615232e+01
3.060842250385337593e+01 1.228121598702669246e+02 4.071466510453451804e+01 2.635389712423656405e+01
3.060735143873768394e+01 1.227926119764540118e+02 4.071201582450076728e+01 2.635593798713130553e+01
3.060991391582795629e+01 1.226328914606517912e+02 4.071329761950511994e+01 2.635897346069286939e+01
3.061364212788798156e+01 1.227464694237679481e+02 4.071183397900911416e+01 2.636200858473251785e+01
3.059831885601556678e+01 1.228384972392612724e+02 4.072524752060325426e+01 2.635969064224472902e+01
3.063946613396515772e+01 1.228883087197476414e+02 4.075452965664554483e+01 2.634688221671610009e+01
3.065357858414573045e+01 1.228864806722041436e+02 4.074892483899914453e+01 2.633530781760824269e+01
3.073520250420351374e+01 1.229501273362496505e+02 4.088962405127248445e+01 2.637889580064925710e+01
3.066146910789497326e+01 1.227592895222190492e+02 4.095439270034902535e+01 2.645802468379258343e+01
3.065567115713498580e+01 1.226111100838745358e+02 4.136841623478473906e+01 2.646629676213714077e+01
3.065567115713498580e+01 1.227569565768066724e+02 4.163695896885843695e+01 2.647301227605535701e+01
3.065484717584476826e+01 1.233323449383818371e+02 4.174950854626197128e+01 2.642690523301667938e+01
3.066647368078693603e+01 1.230581382436773197e+02 4.180165092068016719e+01 2.639284489064244710e+01
3.067320452535727071e+01 1.226128085805067798e+02 4.184218870200746210e+01 2.637574804616627944e+01
3.067338322413094787e+01 1.228746575498788332e+02 4.188624029361433543e+01 2.636729669536699205e+01
3.067109757433531669e+01 1.233414969424321299e+02 4.191093525291938704e+01 2.635573126149562739e+01
3.067152642328708367e+01 1.236713248089467072e+02 4.190700790099909767e+01 2.627347991533499183e+01
3.070102067121543854e+01 1.235915742273719644e+02 4.187102960872112334e+01 2.624042312428500168e+01
3.070296218957378898e+01 1.235928953459704189e+02 4.182922121214308930e+01 2.626039340213402795e+01
3.070865230019705194e+01 1.233659233824316601e+02 4.174601135263584695e+01 2.624034186530689183e+01
3.070983664454107398e+01 1.232205223978538271e+02 4.168579869277307637e+01 2.629553552135503125e+01
3.070418224565503351e+01 1.232242699958088537e+02 4.166005912831139568e+01 2.626888362927091691e+01
3.066732597169824714e+01 1.231766294879024457e+02 4.167159453265978897e+01 2.626888362927091691e+01
3.069013308564167630e+01 1.231789313965663410e+02 4.169937065441637003e+01 2.626681080872801388e+01
3.075318152800451088e+01 1.231601540596632987e+02 4.173969070338688425e+01 2.626505977113912493e+01
3.076480904953576712e+01 1.227429696398127703e+02 4.184323713498277186e+01 2.625657279250621556e+01
3.082898063339749584e+01 1.227406028174866037e+02 4.196908630330664636e+01 2.625467712049628233e+01
3.084560929815454244e+01 1.227544559354160469e+02 4.206152854300948007e+01 2.615703251839126153e+01
3.084560929815454244e+01 1.230039791063687460e+02 4.208761845881043939e+01 2.612388635677148230e+01
3.081645396366035783e+01 1.229119651620622307e+02 4.216960206990814441e+01 2.610950632869526089e+01
3.078716138675987324e+01 1.229448021024069106e+02 4.239179317951060000e+01 2.610950632869525734e+01
3.078702149956045986e+01 1.229783147876079994e+02 4.251668360931272161e+01 2.610742057234898894e+01
3.078881496151480590e+01 1.228923483216103421e+02 4.255249501515041999e+01 2.610450062820926576e+01
3.078869844885291585e+01 1.228972859098198427e+02 4.253920356770213118e+01 2.610412571800694082e+01
3.077139183875825523e+01 1.229006964504270059e+02 4.258901949205218784e+01 2.610493383726873162e+01
3.076417787775902823e+01 1.229321024143002319e+02 4.268270940432907423e+01 2.611703574160317842e+01
3.075329440587460184e+01 1.228344734836275620e+02 4.265798708254295235e+01 2.614919490376031774e+01
3.083643304687489106e+01 1.224718420699223458e+02 4.256528396163241013e+01 2.618613429498223155e+01
3.081940387766119827e+01 1.223884552888874424e+02 4.257815104504188497e+01 2.614515526787919342e+01
3.076507285371510747e+01 1.217722622110634916e+02 4.258503950279254724e+01 2.629105774634241044e+01
3.071465556919689988e+01 1.212945770428340353e+02 4.259896755009916092e+01 2.633488873076002079e+01
3.072192215103732948e+01 1.208970953331799478e+02 4.265462486922609742e+01 2.633119285982903079e+01
3.077623616777071547e+01 1.206773591855572505e+02 4.273965803342840530e+01 2.633731047939743775e+01
3.085626507298636412e+01 1.208128468831026368e+02 4.284764318949645201e+01 2.633773232218075222e+01
3.089317136479189685e+01 1.195894090795669342e+02 4.287996303559975786e+01 2.633979956152877477e+01
3.084693180227813158e+01 1.185573060928764733e+02 4.282792340161265798e+01 2.633979956152877122e+01
3.085900099248836881e+01 1.187855376550529627e+02 4.274074590849347288e+01 2.632266826358689471e+01
3.084730743799850927e+01 1.188690687605485010e+02 4.263580205618749375e+01 2.632321659944907566e+01
3.085220916068082886e+01 1.188682234913940619e+02 4.264560706865832884e+01 2.624368125158596499e+01
3.084479075653453251e+01 1.187009445118277142e+02 4.262993586312794037e+01 2.639511424048355792e+01
3.080981694224096046e+01 1.186966784539483371e+02 4.262708345282845102e+01 2.641298221168606730e+01
3.067397004651335024e+01 1.186982610656112485e+02 4.261955025401373121e+01 2.645060679798312719e+01
3.050885852231115791e+01 1.184868902621720679e+02 4.258841047625986675e+01 2.647507812632182933e+01
3.050390162609363998e+01 1.184868902621720679e+02 4.257094701524034974e+01 2.648495627499086069e+01
3.049998376154318791e+01 1.185224430899059911e+02 4.255926976082180602e+01 2.649544295071974176e+01
3.054538844170095402e+01 1.185217638242023668e+02 4.254536714443067780e+01 2.649565247523030820e+01
3.059158983273668042e+01 1.185088700646496136e+02 4.254083485986613056e+01 2.649795852428719556e+01
3.046649706438858374e+01 1.185330312613324111e+02 4.253972899977621580e+01 2.649126709908086852e+01
3.057430076672888219e+01 1.185169870524896680e+02 4.253612260108344145e+01 2.621400804318519562e+01
3.057674869331921386e+01 1.185325741726720707e+02 4.250330794672812118e+01 2.602704357000319746e+01
3.056517980471238971e+01 1.185364974849518944e+02 4.231635003936896311e+01 2.618583664976504366e+01
3.045406036137707062e+01 1.185007689595304186e+02 4.196968989943101036e+01 2.616146885749176576e+01
3.042441887455531813e+01 1.183419105980633077e+02 4.172482018576475582e+01 2.615876716937385638e+01
3.039868130321442052e+01 1.181948256227826874e+02 4.147637012678908519e+01 2.615793485187324308e+01
3.044380223057556734e+01 1.182008817395200566e+02 4.129748649221163959e+01 2.615851306442152335e+01
3.044134361315870052e+01 1.184933940605973532e+02 4.116821203421886111e+01 2.615119831712328136e+01
3.042005141636677124e+01 1.182433574117379464e+02 4.116752639853896056e+01 2.611663370002940354e+01
3.029316815677089636e+01 1.181913822408385357e+02 4.099423390495793029e+01 2.608589933447145270e+01
3.037403680537702400e+01 1.182750801310233868e+02 4.079732959121714941e+01 2.605145129638995982e+01
3.033852031748414291e+01 1.185189316016643915e+02 4.061044976867902534e+01 2.606982755565351439e+01
3.037567592423908636e+01 1.198149855902841665e+02 4.027246026175210147e+01 2.596000311623334156e+01
3.037239652866395190e+01 1.201994293996440035e+02 4.003074422708628788e+01 2.595823138264324825e+01
3.018030392713761856e+01 1.202091251943878234e+02 3.996161357721184970e+01 2.596000311623334156e+01
3.013268284661022633e+01 1.203950177872822280e+02 3.995427282099378630e+01 2.596058517024436085e+01
3.017340387318603945e+01 1.203832200433266593e+02 3.995232170092750579e+01 2.597275433336848494e+01
3.014740146437829083e+01 1.201200527305911834e+02 3.994340224085078006e+01 2.600362242832418858e+01
3.026974312171146053e+01 1.200305963494308656e+02 3.991521618849637321e+01 2.602916147365318267e+01
3.026020129765164768e+01 1.200307302485492897e+02 3.987171989486286350e+01 2.605063163779676572e+01
3.036956906665615108e+01 1.193768801569215299e+02 3.970678523797164416e+01 2.614629565365192931e+01
3.036613080150973332e+01 1.182851762310053942e+02 3.950659550219940996e+01 2.613181793870283087e+01
3.035188469954375279e+01 1.182910500587428402e+02 3.931766564808244624e+01 2.611113713203961240e+01
3.028415854691026610e+01 1.175964754063658404e+02 3.920392174890672976e+01 2.608548976745842296e+01
3.029925304713629686e+01 1.176445366857297188e+02 3.905649807361640313e+01 2.608497815234235517e+01
3.035356198692993956e+01 1.177351846645683366e+02 3.889368101908588926e+01 2.608381901859550211e+01
3.033312255364419485e+01 1.176533394511180433e+02 3.875616766624896314e+01 2.609115265592619437e+01
3.026945893692845857e+01 1.175579342281923942e+02 3.867636821851816364e+01 2.613572655877093354e+01
3.021642457231494205e+01 1.175464028713767703e+02 3.856992500918821065e+01 2.624343553287522113e+01
3.027281624980401986e+01 1.177372462222554788e+02 3.852806596773839942e+01 2.626418994108729521e+01
3.029134222206731764e+01 1.178010475505205932e+02 3.840065434461243399e+01 2.625593932316098034e+01
3.029952267634588026e+01 1.178197912237159386e+02 3.835544052796684156e+01 2.597269176516322986e+01
3.030605462963462315e+01 1.180230161112654059e+02 3.814075870685324077e+01 2.599203944764969521e+01
3.027870249819827109e+01 1.194017685798665696e+02 3.794668205593740140e+01 2.600065632571950758e+01
3.026105699697877682e+01 1.197876319325163621e+02 3.788578364946938137e+01 2.600171708140658922e+01
3.025173455149965918e+01 1.197839101215184598e+02 3.784762599496039570e+01 2.600090575412411198e+01
3.024926032309547708e+01 1.198175418041949740e+02 3.778083309423445257e+01 2.599716240274781498e+01
3.027907328064051384e+01 1.196125309990554939e+02 3.777405302922101527e+01 2.599716240274781498e+01
3.026677283911184091e+01 1.194046545323925557e+02 3.774196340433816488e+01 2.606122621382535343e+01
3.025912033642746479e+01 1.193073488264658835e+02 3.757209633350795031e+01 2.611483007708157444e+01
3.028853930077180578e+01 1.192083992510595323e+02 3.731237353177095173e+01 2.615703729365218422e+01
3.028774621153575097e+01 1.192778778650928757e+02 3.717491614320604754e+01 2.604683586838993037e+01
3.026544739888042912e+01 1.191543837716431113e+02 3.707425376422836649e+01 2.604860157541752486e+01
3.026803882141025426e+01 1.191260343501789123e+02 3.689431962801864273e+01 2.604586277232613156e+01
3.027224154261455169e+01 1.190844180403129258e+02 3.672775002548348766e+01 2.603498178134266183e+01
3.027339122883985922e+01 1.188828421093641623e+02 3.661166195209392527e+01 2.602536002763799772e+01
3.026961027589219455e+01 1.188741564344412325e+02 3.662858635784900230e+01 2.602502692271763607e+01
3.026961027589219100e+01 1.188634721182248057e+02 3.667143032081516907e+01 2.601495802510889277e+01
3.029296239350648889e+01 1.188855590052887976e+02 3.670222807425186318e+01 2.599701391022010810e+01
3.032476547270231393e+01 1.188382909840090349e+02 3.672773310965981608e+01 2.598808007134894993e+01
3.030346678540919569e+01 1.188382909840090491e+02 3.669789224048707865e+01 2.612611123368428778e+01
3.023508654286272090e+01 1.188773492470285760e+02 3.652726551405676503e+01 2.636893358951358479e+01
3.020152651530048615e+01 1.190753058026726450e+02 3.657533613152995855e+01 2.638351724407073462e+01
3.015488119184684379e+01 1.193037339398897529e+02 3.671178686599715491e+01 2.638351724407073107e+01
3.002438430100438538e+01 1.192673224483555003e+02 3.677987244369398212e+01 2.638237122691674230e+01
3.001856448557123258e+01 1.192941177594268680e+02 3.677333914692001571e+01 2.637162908041223730e+01
2.985708096405940282e+01 1.192399287654936728e+02 3.659137050855570550e+01 2.636457426538203208e+01
2.984001208334873567e+01 1.191730015901252813e+02 3.642283565257378797e+01 2.636631869402409478e+01
2.982509177210354068e+01 1.191547257140899205e+02 3.638041629688148504e+01 2.640984101999690026e+01
2.984617908433839162e+01 1.191967457106107560e+02 3.637956665182255733e+01 2.643851907668388534e+01
2.979087948776266970e+01 1.192558569295445636e+02 3.636905469673909863e+01 2.648550513333996648e+01
2.978946749195759836e+01 1.193869678147493829e+02 3.640275512889649434e+01 2.678457023850692664e+01
2.980918420913927847e+01 1.194173770102157448e+02 3.642016835126383967e+01 2.680783324891272912e+01
2.981796044290082648e+01 1.194478155011635323e+02 3.647319082743378971e+01 2.683279019076307037e+01
2.988588761831240248e+01 1.195165526109250038e+02 3.651902364322464223e+01 2.684217209855002650e+01
2.997548581915560106e+01 1.197165254256905200e+02 3.655598674491498912e+01 2.684117852718426178e+01
2.996719464772100494e+01 1.197630032188572216e+02 3.660926079797842903e+01 2.684738671692605294e+01
2.996791924732844592e+01 1.197700305585667166e+02 3.663553378694516738e+01 2.689751568369919354e+01
2.995929785850126592e+01 1.197790748837208383e+02 3.665582508925969307e+01 2.691374479248185381e+01
2.999860374108099492e+01 1.198089930681332618e+02 3.665074671891966318e+01 2.688869891549565949e+01
3.001888037642974183e+01 1.198015436795369766e+02 3.665019975954293585e+01 2.692085398710159794e+01
3.001890716755689326e+01 1.198181470562786046e+02 3.665097116550120404e+01 2.694309002189944735e+01
3.001902666800505770e+01 1.198150297583738251e+02 3.672182459103034091e+01 2.696313272565913621e+01
3.002730282150560726e+01 1.197884897809468470e+02 3.682147257694076359e+01 2.696292683386166544e+01
3.002621102727413316e+01 1.197977318149221304e+02 3.688217255008712669e+01 2.697922343103134679e+01
2.995177806832840872e+01 1.192945223050916468e+02 3.690441971166056589e+01 2.698246865271678985e+01
2.990658814399260024e+01 1.175265078354666741e+02 3.689245816497459884e+01 2.700286961703967137e+01
2.993075065704832483e+01 1.170118111474222502e+02 3.689239907859613510e+01 2.700376656557705957e+01
2.993617998900993271e+01 1.170056914000340811e+02 3.690531899678420302e+01 2.699414500630665970e+01
2.990396364922882100e+01 1.173594495385864178e+02 3.704056570213798238e+01 2.704319686985084914e+01
2.986786197661959719e+01 1.152050479275973771e+02 3.715531373268701998e+01 2.700257089750611073e+01
2.989354540388942638e+01 1.133423683712318280e+02 3.719221056315960539e+01 2.697066019674300108e+01
2.998829953722615826e+01 1.133027813427367363e+02 3.719145162876008470e+01 2.698518105692166813e+01
2.998815592353752280e+01 1.132881693558511529e+02 3.718813327950734049e+01 2.698536225601163352e+01
3.000389699513046082e+01 1.132907336546110031e+02 3.717324289128406178e+01 2.698196123304439453e+01
3.000009654141797455e+01 1.133456192536791889e+02 3.714473647146255786e+01 2.697355970541357095e+01
2.998473392935810011e+01 1.133533510223672636e+02 3.708207853309198043e+01 2.695848818080947140e+01
3.000885396302895813e+01 1.134094748246371722e+02 3.699820163649039984e+01 2.694395293508688738e+01
2.999740893901336136e+01 1.135889275765909048e+02 3.693581321176509391e+01 2.692823763576400964e+01
2.999539564690552140e+01 1.137151338213169112e+02 3.693130515341152886e+01 2.687094861260969125e+01
2.995120357138254974e+01 1.137151338213169112e+02 3.694090778763295191e+01 2.706357053324962081e+01
2.995961819807452997e+01 1.137573394731083312e+02 3.692438636584771672e+01 2.708285918697489691e+01
2.983556405121911936e+01 1.144172287900734375e+02 3.691092279115223107e+01 2.706503219398621951e+01
2.983756188455079794e+01 1.144142026323655870e+02 3.690178913622483492e+01 2.706503219398621951e+01
2.987257655332727779e+01 1.144018547227273359e+02 3.688883607183074531e+01 2.705476629717662007e+01
2.987801645649186355e+01 1.132047850048751769e+02 3.689251148748755327e+01 2.705194860821509550e+01
2.995552038630606972e+01 1.131017673955628879e+02 3.688921544102559125e+01 2.705585013328622068e+01
2.996186952802509396e+01 1.134140633078632447e+02 3.687961412398998107e+01 2.709494195124822014e+01
2.994420484324802700e+01 1.136645516421017277e+02 3.687789348450370142e+01 2.713041482779386726e+01
2.998601007427294718e+01 1.132980115800803134e+02 3.685084093279828465e+01 2.713504213487627226e+01
2.986641609055895330e+01 1.128008216459437705e+02 3.690558515800015726e+01 2.710380556960302556e+01
2.994887630103003673e+01 1.122869889702275970e+02 3.690602984248510410e+01 2.709939406520947713e+01
2.989325802006865018e+01 1.120651254762158970e+02 3.691380671150567139e+01 2.710554311393724092e+01
2.991930093325040829e+01 1.122477508193371989e+02 3.690691166508518961e+01 2.710695450018028296e+01
2.992196158834508424e+01 1.126845709580509265e+02 3.689997102457400757e+01 2.710154401865037599e+01
2.993839134780622757e+01 1.119962275257520190e+02 3.691596300808637210e+01 2.708206368665758390e+01
3.009565025339041711e+01 1.118651089303542108e+02 3.693418792412256835e+01 2.704868861753148579e+01
3.027589877929965922e+01 1.118059013290444028e+02 3.693753771780681916e+01 2.702542071423700776e+01
3.026741615689054399e+01 1.118626269850659867e+02 3.691093283045555040e+01 2.703844207903832952e+01
3.019627529902319907e+01 1.120044393941597889e+02 3.690032591095099690e+01 2.714334627531231092e+01
3.018693284741592819e+01 1.121443324827430388e+02 3.689600442127034796e+01 2.700781471663668754e+01
3.007257981641080846e+01 1.121936276087016182e+02 3.687314313283317091e+01 2.702125546518599464e+01
3.007061132225945599e+01 1.121858304243455535e+02 3.681402081618362843e+01 2.695563970046918456e+01
3.005298449895448343e+01 1.123755218363857722e+02 3.680451093459063827e+01 2.695685981480119864e+01
3.005503512981474756e+01 1.125824494492814694e+02 3.674561833163787128e+01 2.695685981480119864e+01
3.005503512981474756e+01 1.125846183277272416e+02 3.659881258202786825e+01 2.698167891356732540e+01
3.005764469306267017e+01 1.124888628265039188e+02 3.648966698031652101e+01 2.698774852672060831e+01
3.004410892029248714e+01 1.121322953479505458e+02 3.655161216929291612e+01 2.699715801897507816e+01
3.001354041119438776e+01 1.116985570721485033e+02 3.665860569108434674e+01 2.699715801897507816e+01
2.994398818618519442e+01 1.116723742203057839e+02 3.694554019979139525e+01 2.700205623938376576e+01
3.002037395660484620e+01 1.116798713287225127e+02 3.704319281722894175e+01 2.710872710613398340e+01
3.002817188731939169e+01 1.116582453560865105e+02 3.721902348227853707e+01 2.702876730167650265e+01
3.010387933031885055e+01 1.115898610627328367e+02 3.716911726708615049e+01 2.700028916156597347e+01
3.009562353057996731e+01 1.115650300587061992e+02 3.701462172080651669e+01 2.700145796918214813e+01
3.009822957475071448e+01 1.115787803661610980e+02 3.692956404636265688e+01 2.699540070027072147e+01
3.013008789655945563e+01 1.116284810073128995e+02 3.692080083657993583e+01 2.698996785637539375e+01
3.014287101412867287e+01 1.115429381180180997e+02 3.694283296790327853e+01 2.697385902699457816e+01
2.998507803582305797e+01 1.114879374102867473e+02 3.694387757469972655e+01 2.696672372501913983e+01
2.990856001372179662e+01 1.114486832403147503e+02 3.694206138718305965e+01 2.694966053926301797e+01
3.005827062248256354e+01 1.117027429385689459e+02 3.690225010828474694e+01 2.693942655727555646e+01
3.005966293913487064e+01 1.117224590671008002e+02 3.725417136180056588e+01 2.692890662531331714e+01
3.005968969391398105e+01 1.118411106704507461e+02 3.800690691564365409e+01 2.689548202322297499e+01
3.003605193520610328e+01 1.117357339260812097e+02 3.832156467805562983e+01 2.696703674503702075e+01
3.004146223628933754e+01 1.117942949707185107e+02 3.837335897539334439e+01 2.694391118913839023e+01
3.004351365360580317e+01 1.117951888946926857e+02 3.829809107324281570e+01 2.691727408650766051e+01
3.004167569784345915e+01 1.116763274646870627e+02 3.832233827540278526e+01 2.689937726332792778e+01
3.002013492065614031e+01 1.119522979665893985e+02 3.848434619964851322e+01 2.689771661154238913e+01
3.000903167272143790e+01 1.125503969784203377e+02 3.882516197125777779e+01 2.689269357591717480e+01
3.001550732828612666e+01 1.125640306847618746e+02 3.912317428448771750e+01 2.688135418975099356e+01
3.004157317875344191e+01 1.122728304978546987e+02 3.936144239651795829e+01 2.693517375789836521e+01
3.006266106675186478e+01 1.119381040932890556e+02 3.936144239651795118e+01 2.692905952921818624e+01
3.006027899827941141e+01 1.110514358124198964e+02 3.936235006417174276e+01 2.686707935264847791e+01
3.005778901007854031e+01 1.108745646755829029e+02 3.938287533452072608e+01 2.687667308146930623e+01
3.007776258990017482e+01 1.108925875791525471e+02 3.950354694371635134e+01 2.687950914398382452e+01
3.007776258990017482e+01 1.110481465131229442e+02 3.965371962394450378e+01 2.687458940948078379e+01
3.009882512282495171e+01 1.113159984728162044e+02 3.984654895589329726e+01 2.687465507341151394e+01
3.011516895145033956e+01 1.116139064991455996e+02 3.990991563025912114e+01 2.688817031549085002e+01
3.009456760836411249e+01 1.116457628215241016e+02 3.990094558095586308e+01 2.691155688661490331e+01
3.007279343217717127e+01 1.116070705824680971e+02 3.988884566710851232e+01 2.691613931865991205e+01
2.999591463673675662e+01 1.116919825770856960e+02 3.987470038425870200e+01 2.695934924402868305e+01
3.010105758963293709e+01 1.116802460778091870e+02 3.986618527040681670e+01 2.685743017704492175e+01
3.014697711437083072e+01 1.120041766899789053e+02 3.987429229183135249e+01 2.679998979268791715e+01
3.016491805814162319e+01 1.123256775808631147e+02 3.987210244788204250e+01 2.669169616456604999e+01
3.014294754025224066e+01 1.120726943550480144e+02 3.987471753598264002e+01 2.668574244813467189e+01
3.014319995246686545e+01 1.120701666814144204e+02 3.990788259397385218e+01 2.668327792122830644e+01
3.014319995246686545e+01 1.118853898773204918e+02 3.994282955242907462e+01 2.669217163404862347e+01
3.015506267833642795e+01 1.118202222319380468e+02 3.999660766233058240e+01 2.670533236306019020e+01
3.014018212045836975e+01 1.120033327182723184e+02 4.003166339404848628e+01 2.671686507922495579e+01
3.011023164332015511e+01 1.122201667972384058e+02 4.005340274401665823e+01 2.671532657099372088e+01
3.014530099127222940e+01 1.125702477744453205e+02 4.005340274401665823e+01 2.670698267909555312e+01
3.028014904610607161e+01 1.136291021701747468e+02 4.005706825435931506e+01 2.673868282335868329e+01
3.017581176529304798e+01 1.142955900636591053e+02 4.005405881074227636e+01 2.682151101451053421e+01
3.020319329101474892e+01 1.139912357859147534e+02 4.005232589718605851e+01 2.687530979483170057e+01
3.020337477061790921e+01 1.132565059146714646e+02 4.013550770495373854e+01 2.688704991443854908e+01
3.019260668465706132e+01 1.130110468051686183e+02 4.039424181358527477e+01 2.688817442138538638e+01
3.015785236939789726e+01 1.140102076307205436e+02 4.058298153480595261e+01 2.688700068920871544e+01
3.015862220749479761e+01 1.140293080396439649e+02 4.068323661871558983e+01 2.687751788704040123e+01
3.017230897916827459e+01 1.138025752081208850e+02 4.070113700837362103e+01 2.692614648963921198e+01
3.017274491746480791e+01 1.135691193414830167e+02 4.072079342270237134e+01 2.692730185830315648e+01
3.032922937125832163e+01 1.133889249089169624e+02 4.078290451076775014e+01 2.692783788191772487e+01
3.032796282005104516e+01 1.134681254449901076e+02 4.092858681379556884e+01 2.699522828516507644e+01
3.042428814244301094e+01 1.134692257310325090e+02 4.100592803600963521e+01 2.697818312800505325e+01
3.037915251507847003e+01 1.134481449297431794e+02 4.100655657055833103e+01 2.679884348315880871e+01
3.052475925170251969e+01 1.135312271227612939e+02 4.100103937041596680e+01 2.680028638419454268e+01
3.052025740150955002e+01 1.135618718936950700e+02 4.100127110437431810e+01 2.680028638419454268e+01
3.050853667573058914e+01 1.136308073543438866e+02 4.101437952150928368e+01 2.680049352545913166e+01
3.046120085903375241e+01 1.136005623401574951e+02 4.100904729074306232e+01 2.680412468722261465e+01
3.042864663198806241e+01 1.134272052551768013e+02 4.102868223882410348e+01 2.679025113994846663e+01
3.045154770737275030e+01 1.136049420227835469e+02 4.103567781156295524e+01 2.677075165937961998e+01
3.047766145120715109e+01 1.137623877562351993e+02 4.103870722932681048e+01 2.677412074039986223e+01
3.048852982769747300e+01 1.137818190573520809e+02 4.102784238458562527e+01 2.667109440339566362e+01
3.048745455059176379e+01 1.138129293006730904e+02 4.104094118626424148e+01 2.667109440339566362e+01
3.047930264842682391e+01 1.138224700311850199e+02 4.104198558761991222e+01 2.667641853987981548e+01
3.047356971302178152e+01 1.138495724893159746e+02 4.104198558761991222e+01 2.667046141298478190e+01
3.047342560353854424e+01 1.138864400883617520e+02 4.106370491826572078e+01 2.669180883857149666e+01
3.046542973034187440e+01 1.138934874520927565e+02 4.106460939756276929e+01 2.671253170844806490e+01
3.046531128504021169e+01 1.138495574167945961e+02 4.105127806846457617e+01 2.672028415981967342e+01
3.048269967857831375e+01 1.138278031589822490e+02 4.103612362217465659e+01 2.671886253232929320e+01
3.050026343254101491e+01 1.137731802315466894e+02 4.099510721067089491e+01 2.672435048979694017e+01
3.049918856911440201e+01 1.132131210240226835e+02 4.098953528907593125e+01 2.677360745575469281e+01
3.062856114436978672e+01 1.130667200373301995e+02 4.098196603403015104e+01 2.667361188256120030e+01
3.062030408233070844e+01 1.130302395467690957e+02 4.098170094681772468e+01 2.665790270685555541e+01
3.065703809330572938e+01 1.127018392573963581e+02 4.098372738751810118e+01 2.670270277421700555e+01
3.064305846377607878e+01 1.122039044062193227e+02 4.098503279606350702e+01 2.669541980155977967e+01
3.057447176738134331e+01 1.120951107408347553e+02 4.099666295900681234e+01 2.668766012738552718e+01
3.040994681242305475e+01 1.120581835119595553e+02 4.101140776923417519e+01 2.667722420508131975e+01
3.043960239185786421e+01 1.120316156627226576e+02 4.101559161117149443e+01 2.667287529622887732e+01
3.045077798701371563e+01 1.119226078859852294e+02 4.102192466102000878e+01 2.667912264989567817e+01
3.045608333608244678e+01 1.118892039653513848e+02 4.102641759274627731e+01 2.667912264989567817e+01
3.041258262256592815e+01 1.119071359833679509e+02 4.102641759274627731e+01 2.661575352020259189e+01
3.041084631006508232e+01 1.119460684258272920e+02 4.098524268092603506e+01 2.657375607389447225e+01
3.043490924077808302e+01 1.120341090739780299e+02 4.091431750004392853e+01 2.649429317132609896e+01
3.041491065668941118e+01 1.121479603916183976e+02 4.090973106553501992e+01 2.646279513747889567e+01
3.044967774959858531e+01 1.122475551092316977e+02 4.091363074006510914e+01 2.645543861681708364e+01
3.039856715331167081e+01 1.123060335868024850e+02 4.092054044039986849e+01 2.645390992011407860e+01
3.042756296804591543e+01 1.122897012730909694e+02 4.093578992732888366e+01 2.645370006498479754e+01
3.043320165106522524e+01 1.124507997125854502e+02 4.093677371184007541e+01 2.645370006498479754e+01
3.043320165106522524e+01 1.125497283337459180e+02 4.092976123475925476e+01 2.644583638019748051e+01
3.041311392170159067e+01 1.126094369935309203e+02 4.091945185378710903e+01 2.644793687192840181e+01
3.029336939223497893e+01 1.130427445349767197e+02 4.092135686135542727e+01 2.644239154655852886e+01
3.028396429555415637e+01 1.131051451880064036e+02 4.092072701815548896e+01 2.645926191931368621e+01
3.032336966523342880e+01 1.131214358996561344e+02 4.091081764636831508e+01 2.640441050597753048e+01
3.032147050019835532e+01 1.133896931294904391e+02 4.088444922576798746e+01 2.650629165025120315e+01
3.031410722707167338e+01 1.153965323049181109e+02 4.084471614510745496e+01 2.650664367301482116e+01
3.031487309711850031e+01 1.154880291458816544e+02 4.081430037247240250e+01 2.650775824209791764e+01
3.031770915643857123e+01 1.154781218240061662e+02 4.083199749625777741e+01 2.652110058817651606e+01
3.032017779918843203e+01 1.154535628380519512e+02 4.081895847586511650e+01 2.652246628014653496e+01
3.032645441878095838e+01 1.153451949757769910e+02 4.075036634748700237e+01 2.650609829872193757e+01
3.035508580278433399e+01 1.152406526361249348e+02 4.071599961310542426e+01 2.650609829872193757e+01
3.044031119706891175e+01 1.151620035081016198e+02 4.074245598702171378e+01 2.646512905456619080e+01
3.046029310453855388e+01 1.149255551563707058e+02 4.075104007917345683e+01 2.666243469118133902e+01
3.043878054874076255e+01 1.149490663728940802e+02 4.076168544717454978e+01 2.676579352696603564e+01
3.028348454478775764e+01 1.147337943066471126e+02 4.074185481116932550e+01 2.673633565483828534e+01
3.028210251905238692e+01 1.147368393673104805e+02 4.069707174938267258e+01 2.673651854040668141e+01
3.029649984031816601e+01 1.147363489919389394e+02 4.065647570577657888e+01 2.673619429577646756e+01
3.033307898407938907e+01 1.146903898502398818e+02 4.059249958125764124e+01 2.673841360106299092e+01
3.033307898407938907e+01 1.146750717636575416e+02 4.045514955817616709e+01 2.673558787399628045e+01
3.028779063606981836e+01 1.146755702492907147e+02 4.037007724360211824e+01 2.674896639264484932e+01
3.035020559558697073e+01 1.147400958863117211e+02 4.034138587820702782e+01 2.674596720818879447e+01
3.043660972471143467e+01 1.148495806348460633e+02 4.033437696276467221e+01 2.672321578418617349e+01
3.038795456384648830e+01 1.149917058400300789e+02 4.034138587820702782e+01 2.669812336541360054e+01
3.038695303472196940e+01 1.149855777913039390e+02 4.033673098919149425e+01 2.662357474986239225e+01
3.032158144448271742e+01 1.149380636168889396e+02 4.033662392038284850e+01 2.669527684731596295e+01
3.031200427313242685e+01 1.150356178407366485e+02 4.033658338945431154e+01 2.671049689057674925e+01
3.031213693315597624e+01 1.152965437296366105e+02 4.034187718605074480e+01 2.671128666478230329e+01
3.032532068114694468e+01 1.151382970344793932e+02 4.034008909080893091e+01 2.669568228924252296e+01
3.032763239051803339e+01 1.149662204127804159e+02 4.032695439844672336e+01 2.668613150298940440e+01
3.032655140853306364e+01 1.149662489428963141e+02 4.032282546863998363e+01 2.670056669126787696e+01
3.037231848664830736e+01 1.149041547551697846e+02 4.032230128966353533e+01 2.672096604406691256e+01
3.049485851769767919e+01 1.149682472859354476e+02 4.032065998485641956e+01 2.691271752279041252e+01
3.046586282143341151e+01 1.150821144922181389e+02 4.033160480831876527e+01 2.692930226367138502e+01
3.043650017749081726e+01 1.152162639734512766e+02 4.033488429851264101e+01 2.699789855491553325e+01
3.041705440857807119e+01 1.151269899719436296e+02 4.032944425521385057e+01 2.697017246826903047e+01
3.045002138610740872e+01 1.151392991640995263e+02 4.031640071452809337e+01 2.696864841072889618e+01
3.044690709307595000e+01 1.151675290175143402e+02 4.028177785369460651e+01 2.696844256104117221e+01
3.044697138853712914e+01 1.151727037973842442e+02 4.024712520832265739e+01 2.698499305382240365e+01
3.044046967335422949e+01 1.151735430209560320e+02 4.019872119376935160e+01 2.700798542421932424e+01
3.042008863390109497e+01 1.151568589186072273e+02 4.015979346578367171e+01 2.700458725046870256e+01
3.045829648838553538e+01 1.150807909427112463e+02 4.012503547281174576e+01 2.702497151762008443e+01
3.045388803312967241e+01 1.151914198714470672e+02 4.011830607807863203e+01 2.692004851273817323e+01
3.051683333529870978e+01 1.151633360232327163e+02 4.011426333480899586e+01 2.678316328208532227e+01
3.051435494082086208e+01 1.150334298714943628e+02 4.010318880506139294e+01 2.676674731642808425e+01
3.063787942032539746e+01 1.149956916236430686e+02 4.009870115221191611e+01 2.662436158173268907e+01
3.064554748237333115e+01 1.142582418033815657e+02 4.012207853058464480e+01 2.664057493038598423e+01
3.062924827308692599e+01 1.144035890520923004e+02 4.012575223188222395e+01 2.664046728884793680e+01
3.054862465274661787e+01 1.143604534968273612e+02 4.012745583181671805e+01 2.664150256989103127e+01
3.052567333400524063e+01 1.144028814147616231e+02 4.012277945125936895e+01 2.661991592639197535e+01
3.045370869786467338e+01 1.145854638774046919e+02 4.012366989613987300e+01 2.657894645281318446e+01
3.040615527708819954e+01 1.145896489391603552e+02 4.016051075788754332e+01 2.661057309432055717e+01
3.040084121491375058e+01 1.146036339912483442e+02 4.021059667319550357e+01 2.664414675399039822e+01
3.033360636677410227e+01 1.145731443401987377e+02 4.036109638171888037e+01 2.674922094183013499e+01
3.032733122736648568e+01 1.145817152428781469e+02 4.040842316169242565e+01 2.677450439569038565e+01
3.032622441410071445e+01 1.145557739269392385e+02 4.040772463396573499e+01 2.682618557718391727e+01
3.036162284223948404e+01 1.145182379361471448e+02 4.040704632430340126e+01 2.684254136170500260e+01
3.034663887046469100e+01 1.145170498921449251e+02 4.040839059223221597e+01 2.682043580421796847e+01
3.031173787981148493e+01 1.145557152655423465e+02 4.041061893728430476e+01 2.679216655034658245e+01
3.028263116201097915e+01 1.148194789223501573e+02 4.041051206424389619e+01 2.678623516525189174e+01
2.998257298656001524e+01 1.149556497611144437e+02 4.040982591220112141e+01 2.680042520822216900e+01
2.994389066528259846e+01 1.150476666256209342e+02 4.040982591220112141e+01 2.679758077603605315e+01
2.987096476269888612e+01 1.152646891810324234e+02 4.040982591220112141e+01 2.679640307568991275e+01
2.986896916357172316e+01 1.153347083058695404e+02 4.045534393790764938e+01 2.673820542834124225e+01
2.986756085947425632e+01 1.153365456912942761e+02 4.043661521955566940e+01 2.657807748818897053e+01
2.990568732556398857e+01 1.153393991487731398e+02 4.045324172343177338e+01 2.655047102723748864e+01
2.994515122844428845e+01 1.153171060510972410e+02 4.046049195171014645e+01 2.654949146496364065e+01
