1.448865068943274252e+02 1.978818380704785440e+01 9.981794825461006937e+00 5.667854711483624897e+01
1.451002968957678831e+02 1.982516880957581051e+01 9.981794825461006937e+00 5.763915785698161898e+01
1.451742219350253151e+02 1.985668620443781407e+01 9.982152494206854243e+00 5.826403386980724264e+01
1.452114675500526175e+02 1.979345661125188371e+01 9.972888693733633403e+00 5.839119054796461938e+01
1.452939652347611457e+02 1.972958707140566403e+01 9.953113045555150862e+00 5.839476680898194871e+01
1.453965560143705034e+02 1.974437561859522461e+01 9.938874162479375940e+00 5.841871615075125845e+01
1.454457453927064421e+02 1.979904858677585011e+01 9.923062532182296280e+00 5.849219940706093723e+01
1.456815272271676349e+02 1.984173379608859022e+01 9.913743515826910269e+00 5.851140819414660399e+01
1.457637630552943051e+02 1.984173379608859378e+01 9.907405849040408441e+00 5.851092164449909916e+01
1.457715370682493301e+02 1.982739960176769145e+01 9.904639354242036120e+00 5.852433118315304483e+01
1.457728118492607621e+02 1.987416035580314855e+01 9.908213292899992197e+00 5.858236729581731339e+01
1.459890647632211653e+02 1.994623507017914221e+01 9.905223418863409179e+00 5.869251511037882096e+01
1.465469078351364658e+02 2.000322676190463156e+01 9.906664242700470524e+00 5.874646609747726700e+01
1.469449201736486827e+02 2.003893038084062894e+01 9.908104857014791378e+00 5.877393537282247138e+01
1.470523310826454804e+02 2.004396697483254286e+01 9.907750353011531175e+00 5.880735371483778806e+01
1.470515755809504697e+02 2.016386154108824158e+01 9.924365858713599664e+00 5.880992428047649412e+01
1.471621387152279112e+02 2.035422514389033566e+01 1.000880007681240969e+01 5.883768650750452167e+01
1.474173980534183386e+02 2.045390717837330286e+01 1.007179005825677898e+01 5.888616533127323294e+01
1.477617695997174678e+02 2.048638099896719567e+01 1.007554093920520444e+01 5.891674318139153144e+01
1.477724284487467798e+02 2.049938978298730063e+01 1.007741831708896108e+01 5.902356157339806231e+01
1.477811482268289183e+02 2.052461662512061480e+01 1.010186365071317560e+01 5.908908076868951298e+01
1.478074682228201198e+02 2.068797068656511584e+01 1.018347695915300299e+01 5.909740277301008149e+01
1.479527799780726696e+02 2.089436884988020182e+01 1.024888930263177933e+01 5.909814121122631292e+01
1.487165962226139015e+02 2.107797827452886352e+01 1.027258469994772661e+01 5.909784059683325808e+01
1.500219409074552175e+02 2.107777367453318362e+01 1.027512585312706150e+01 5.909827657911900189e+01
1.505162226819421107e+02 2.108117819939967674e+01 1.027546768267022159e+01 5.910271550858482215e+01
1.505786477666736687e+02 2.107999879652536634e+01 1.027598321999409059e+01 5.910240500697676680e+01
1.505834992449039191e+02 2.116354780422013349e+01 1.030411358330255034e+01 5.910312157990230020e+01
1.505826829142049235e+02 2.124255589223773555e+01 1.033216735915558537e+01 5.910431981287024428e+01
1.506277381521742882e+02 2.127298711844462176e+01 1.035693066973029985e+01 5.910425015384860359e+01
1.507879110115926551e+02 2.128300201463233776e+01 1.041264153697802719e+01 5.911311701753437120e+01
1.515677065130959136e+02 2.130644693752364915e+01 1.044040369801858326e+01 5.912671224510440027e+01
1.526055923249209911e+02 2.132774615834603793e+01 1.046809223199720051e+01 5.914525541711168444e+01
1.532846679666299110e+02 2.132691506449485175e+01 1.048415473071625925e+01 5.916425217766252587e+01
1.534916522265624224e+02 2.133613469105508287e+01 1.048731999023583406e+01 5.919193896882169525e+01
1.535063968596748225e+02 2.139520886012046930e+01 1.048731999023583406e+01 5.919821352401927328e+01
1.535151282891688993e+02 2.151002657448019306e+01 1.050335308449640337e+01 5.997710932332472566e+01
1.535315461005977795e+02 2.152540111484206520e+01 1.058350093766708788e+01 6.040473232505914325e+01
1.535512622131123521e+02 2.151634841962836830e+01 1.061765547461397574e+01 6.051984610298271861e+01
1.535830440850811556e+02 2.149483468203878545e+01 1.061765547461397574e+01 6.052418077260838913e+01
1.536309661287072004e+02 2.153611819265898575e+01 1.067662370310015696e+01 6.077949420922086432e+01
1.538109315050135706e+02 2.181135311059000159e+01 1.090010369572694060e+01 6.152480984585577772e+01
1.540981799167010990e+02 2.193609752549840763e+01 1.090314820304668331e+01 6.196852283330663624e+01
1.541956677525019757e+02 2.193374297488181668e+01 1.090488310151008200e+01 6.208606238790940779e+01
1.546663573581532773e+02 2.192371588778182812e+01 1.091390103389251642e+01 6.226170931250907614e+01
1.547869548458137388e+02 2.191443586880979666e+01 1.091694169342312293e+01 6.241438461814749417e+01
1.547933729952286228e+02 2.193656976485105403e+01 1.092540504775910470e+01 6.253152075475252758e+01
1.548034714392412354e+02 2.196294562230161063e+01 1.098598262958758376e+01 6.261795235411364047e+01
1.548649692139574086e+02 2.203807058784511952e+01 1.106638030512236348e+01 6.261795235411364047e+01
1.549425266427522274e+02 2.214612110584704752e+01 1.114045473836683797e+01 6.263797001953936672e+01
1.549467155638995166e+02 2.227229399548934552e+01 1.124196225298769392e+01 6.271890661979086445e+01
1.550122096353702830e+02 2.238398126119459519e+01 1.137503049040309655e+01 6.279932116200551206e+01
1.551597288346431185e+02 2.246108519628657874e+01 1.144757059019948287e+01 6.283465859588994817e+01
1.554836380666466766e+02 2.253902846844803065e+01 1.145564192603802134e+01 6.284487532717933078e+01
1.558970251391602915e+02 2.258127552187528764e+01 1.145564192603802134e+01 6.284868495390639254e+01
1.563325165205242229e+02 2.260181943195821574e+01 1.145564192603801956e+01 6.284935881387637124e+01
1.564796699639923929e+02 2.261327840793643063e+01 1.147032158998169038e+01 6.285176406632285762e+01
1.564870920658952684e+02 2.261177827198716273e+01 1.157114163155909559e+01 6.285182957195475240e+01
1.565218165778815091e+02 2.263463519553262060e+01 1.182143226253063162e+01 6.285562000443592723e+01
1.565112823308274699e+02 2.271985484772098474e+01 1.210370120986138964e+01 6.286417326486827761e+01
1.565170680917579205e+02 2.289333564587834502e+01 1.229337036038531217e+01 6.288327058973671058e+01
1.565328405084376584e+02 2.315716516519622559e+01 1.238749353572384670e+01 6.290629530008937564e+01
1.565683175129629490e+02 2.331876333902616949e+01 1.241083887968899901e+01 6.290792218988569573e+01
1.566057991417941651e+02 2.337662344668659742e+01 1.241876330467732537e+01 6.297532673723929264e+01
1.569401920785111599e+02 2.339687449970282174e+01 1.244204997649503497e+01 6.324042912448264531e+01
1.571501705275561562e+02 2.339176174827748156e+01 1.249240943683803984e+01 6.341219217707305944e+01
1.571516947768619445e+02 2.338870197755412406e+01 1.251555908210256973e+01 6.376376685533914213e+01
1.572027807007241904e+02 2.337348936854553116e+01 1.252086176976649412e+01 6.473311777533490385e+01
1.572132346389450106e+02 2.339845145263914361e+01 1.252717624756673409e+01 6.571105952989988452e+01
1.572243845312805774e+02 2.341784801118249959e+01 1.252759912264118292e+01 6.642735669593298553e+01
1.572267789431557787e+02 2.341687664530671142e+01 1.252759912264118292e+01 6.678053552072924504e+01
1.575294709216024103e+02 2.341687664530671142e+01 1.252774161681187159e+01 6.683779835997526675e+01
1.580939775350091452e+02 2.346290514851427389e+01 1.253075736967243792e+01 6.729564755342933324e+01
1.583556122303216114e+02 2.352241482462017430e+01 1.253140435616056969e+01 6.790083021393807883e+01
1.586573772001792975e+02 2.356470611136163384e+01 1.254862460421858827e+01 6.838820069072865238e+01
1.591649922867462124e+02 2.360642826198359145e+01 1.258625037481775699e+01 6.871751578286800566e+01
1.599485584031315284e+02 2.365647794878838184e+01 1.264922416979002406e+01 6.911865311425501091e+01
1.601644859338048832e+02 2.371082015806660692e+01 1.266140537924602327e+01 6.953723443380565072e+01
1.602230399662919353e+02 2.378362301377800847e+01 1.265886470492516658e+01 6.983246379849929042e+01
1.602150620610933061e+02 2.385620369536704644e+01 1.265848865297908077e+01 6.997963180780091363e+01
1.602027659562717474e+02 2.393573318997166055e+01 1.265811258986110133e+01 7.002180316869439025e+01
1.602093466937556059e+02 2.396381982756875928e+01 1.265811258986110133e+01 7.004248130467237843e+01
1.602393959800147911e+02 2.401541415080831499e+01 1.265839006894637286e+01 7.004825413390909716e+01
1.605464377158209572e+02 2.405933767185160121e+01 1.266045236228153748e+01 7.004825413390909716e+01
1.610287026962583923e+02 2.406249956830844994e+01 1.268301836384384274e+01 7.007580246035035998e+01
1.618196710491032206e+02 2.414251717630491356e+01 1.277427086363836928e+01 7.016733529619543219e+01
1.625415691767493058e+02 2.422595337638633239e+01 1.277468555924568072e+01 7.128740879946504094e+01
1.634137045882014831e+02 2.424690865976205956e+01 1.278150443483082910e+01 7.239794609247360313e+01
1.649716041191331328e+02 2.424690865976205956e+01 1.283073709252902539e+01 7.350772799433208604e+01
1.662282880307680557e+02 2.429963679141818744e+01 1.305403757684189259e+01 7.409147594630603351e+01
1.664620715551743615e+02 2.430550885447256704e+01 1.306802973740112783e+01 7.409596454838400348e+01
1.665339985013270052e+02 2.432498660352171527e+01 1.308544063368139732e+01 7.416465485936487312e+01
1.667318951611837861e+02 2.432516389108566202e+01 1.317447618152616151e+01 7.431726041314614406e+01
1.668062618466105107e+02 2.431939975865997638e+01 1.325984478708556402e+01 7.435709834903936155e+01
1.668027373709435892e+02 2.432710804530981719e+01 1.328125801035429809e+01 7.444423651142318477e+01
1.669128480328581077e+02 2.438571491635033439e+01 1.328308921063169734e+01 7.451646986885100432e+01
1.669887565892985037e+02 2.438903553720081518e+01 1.330697497471157931e+01 7.453850963867857615e+01
1.669439845290628739e+02 2.447025627290223326e+01 1.334789472904248697e+01 7.459611527371055217e+01
1.668698896938569476e+02 2.462323835799922733e+01 1.346793729483473001e+01 7.459647963460058406e+01
1.668762365516432169e+02 2.463303584122030898e+01 1.352326294714408839e+01 7.465734756076399492e+01
1.668460841040028129e+02 2.462221110531798729e+01 1.350888153836579519e+01 7.475490841914917439e+01
1.667518355162544594e+02 2.461429738738939577e+01 1.361878732110903734e+01 7.487161373628445915e+01
1.666215242375365619e+02 2.466069579191777450e+01 1.395378782473061285e+01 7.506188243031243701e+01
1.664580308162991003e+02 2.474047653613091668e+01 1.429048622047550587e+01 7.527453888557126049e+01
1.663806237445934642e+02 2.480328665818660738e+01 1.464157772159818371e+01 7.546366692924955544e+01
1.664173970498276276e+02 2.487389163671105763e+01 1.479073464360713430e+01 7.547219736323687300e+01
1.664101091882340597e+02 2.489404165889589748e+01 1.483112529572858307e+01 7.547243419639194428e+01
1.667575394926417687e+02 2.487511816912992657e+01 1.526814529985879609e+01 7.547548459666917609e+01
1.667320387929085825e+02 2.486470159097385135e+01 1.582406932042451153e+01 7.547645251164131253e+01
1.668670102567909623e+02 2.485352485547092627e+01 1.636271046304982590e+01 7.548318290026844579e+01
1.667936161105693316e+02 2.484224673538025741e+01 1.680876088049324935e+01 7.553408511805810122e+01
1.667582995524959699e+02 2.486706540375933727e+01 1.724265600241448482e+01 7.553350880103067766e+01
1.666637202010082888e+02 2.495681980023719149e+01 1.773680058459248343e+01 7.555202550443001996e+01
1.665379209983119324e+02 2.525183629141013242e+01 1.827056058520373583e+01 7.555296286629253188e+01
1.664915645792302143e+02 2.558139971427504022e+01 1.869057336567287209e+01 7.555901540603021260e+01
1.663964431039316878e+02 2.580994343855699213e+01 1.895078258905421364e+01 7.557124659380738763e+01
1.663789340320462031e+02 2.609531685663498379e+01 1.917906172307707990e+01 7.561042382711114840e+01
1.665587190153670178e+02 2.639731827657583452e+01 1.940465553462880166e+01 7.570241922410436075e+01
1.665870344775966885e+02 2.655373337583332471e+01 1.967805578449253900e+01 7.574010423975340700e+01
1.667130789999392277e+02 2.673295613897157352e+01 1.992614657623496299e+01 7.582297458762336362e+01
1.667469232245080377e+02 2.678136969626792663e+01 2.002795306808961584e+01 7.603257095295001022e+01
1.669080564527668002e+02 2.685692579146351022e+01 2.017382056670476942e+01 7.619255928541871015e+01
1.673175370319560500e+02 2.713063571846738142e+01 2.041605982988883028e+01 7.628697109106319374e+01
1.673313493904832683e+02 2.734730324367489729e+01 2.053355475356374527e+01 7.635213884458015343e+01
1.675158305117459179e+02 2.744583417536277992e+01 2.061562701878359860e+01 7.645786568584934173e+01
1.684414393741634797e+02 2.756136405782881482e+01 2.069577019049062372e+01 7.657856056735926131e+01
1.690298018387289858e+02 2.764152460691784796e+01 2.087248046825293457e+01 7.663792657256617247e+01
1.700198729373716162e+02 2.763787259024914178e+01 2.106691608227460222e+01 7.672019819827139031e+01
1.707735349146347801e+02 2.790259409555877923e+01 2.118105096773057383e+01 7.677007333422344004e+01
1.715263323225911734e+02 2.847289644243296181e+01 2.126045864645445960e+01 7.681144501393468715e+01
1.726170634857399762e+02 2.873079032643396857e+01 2.131363186924274800e+01 7.687663318856199623e+01
1.728641037001030725e+02 2.879128210335283100e+01 2.134168104197980398e+01 7.689480394067844315e+01
1.727769216858547452e+02 2.879347495773150811e+01 2.134817686495969014e+01 7.689208812360807599e+01
1.728719855339203946e+02 2.880923940743393885e+01 2.135750304735083560e+01 7.692133019725658016e+01
1.734177869517426132e+02 2.881600109444134361e+01 2.135472914971295566e+01 7.699163835782456999e+01
1.742997053102499763e+02 2.882347828249587707e+01 2.134461460738048189e+01 7.699767224712300617e+01
1.755341025238115265e+02 2.887441980314372003e+01 2.135092954832646583e+01 7.708049592580934473e+01
1.768217693069492498e+02 2.887703683658542531e+01 2.134106143793228227e+01 7.743219782017067132e+01
1.775908169090957927e+02 2.886557822981399113e+01 2.139109826674638626e+01 7.813210880832140504e+01
1.778270978204390076e+02 2.887482576423353464e+01 2.142790473979199461e+01 7.884504731287000823e+01
1.777533467590413068e+02 2.888665944886747994e+01 2.144857992729588858e+01 7.968751507671727552e+01
1.776097079667662229e+02 2.907503418091733849e+01 2.160246835011222188e+01 7.998196066386080361e+01
1.775177092192212172e+02 2.932739024521010407e+01 2.188557495195409075e+01 7.998787077689993907e+01
1.774648521866794511e+02 2.956611044887110040e+01 2.210460355893315310e+01 8.024460894412395362e+01
1.774968364158640100e+02 2.958174562949553632e+01 2.210411937937361770e+01 8.085884480308082800e+01
1.776229805020734887e+02 2.958501984960482289e+01 2.216831692523363984e+01 8.126929828897284835e+01
1.778332577895371855e+02 2.959808396740423220e+01 2.219646225004336770e+01 8.135893087011842795e+01
1.780594154096883983e+02 2.959467339339144942e+01 2.222457193148160925e+01 8.139532242028434439e+01
1.780816374004910756e+02 2.959407446153443999e+01 2.223626055472457708e+01 8.142103201447426386e+01
1.780757245691842741e+02 2.959733939813134995e+01 2.228710580262946905e+01 8.141600370808785669e+01
1.780707265331390090e+02 2.963995307117593114e+01 2.241675238426833872e+01 8.141095329783360057e+01
1.781349219171804634e+02 2.975586022699021527e+01 2.241848360834426046e+01 8.140761513803265359e+01
1.782569599001396057e+02 2.990137662173507138e+01 2.242811386669864859e+01 8.140796484150293111e+01
1.782731605352863653e+02 3.001711696984757793e+01 2.242943448456960454e+01 8.140883477663041390e+01
1.782724796216173786e+02 3.013239844389277167e+01 2.244506706288934694e+01 8.140947219094783804e+01
1.782726663805755152e+02 3.017997046223722535e+01 2.246068876097971057e+01 8.141921922532813483e+01
1.782722325434894515e+02 3.019176799297304115e+01 2.246068876097971057e+01 8.142176821404729026e+01
1.783000228604583697e+02 3.019201868101642461e+01 2.253213596483032788e+01 8.146808932718407448e+01
1.783123125867643921e+02 3.019472540132649740e+01 2.268150068618918169e+01 8.159427336773525496e+01
1.783178523335226089e+02 3.022273179503872598e+01 2.296979498248951046e+01 8.163390780312252559e+01
1.783472999852814667e+02 3.028078441489770256e+01 2.324777590948433570e+01 8.162791952599332035e+01
1.783424524986689335e+02 3.037395068028158462e+01 2.345829378828733525e+01 8.161724471512566481e+01
1.783242548147614741e+02 3.056763779132289471e+01 2.366713333417463616e+01 8.159813860562042009e+01
1.783362992708999286e+02 3.076010533718707762e+01 2.391710325807872906e+01 8.160018831519555249e+01
1.783405574939138205e+02 3.111926442202929621e+01 2.423961636861442059e+01 8.159356733506656667e+01
1.783451515125656215e+02 3.143804581598828207e+01 2.455789435472023641e+01 8.161994743612235936e+01
1.783860266748491199e+02 3.167765912281890550e+01 2.481790861973668072e+01 8.167169138811425455e+01
1.784369426392415505e+02 3.182804227775947936e+01 2.499874528566584431e+01 8.168383370407742916e+01
1.784223507166072125e+02 3.187298866827800836e+01 2.511557699790311915e+01 8.168800172466400511e+01
1.783793608936863109e+02 3.187687642134203259e+01 2.516046241740401967e+01 8.167599393772552219e+01
1.782547230836815118e+02 3.204744344553625979e+01 2.518212818205801184e+01 8.163915585327529811e+01
1.779965887943922951e+02 3.217946326683389202e+01 2.527524433942430093e+01 8.158360582638754011e+01
1.776390599661008594e+02 3.222687193479242751e+01 2.538692888432155925e+01 8.153229072415854262e+01
1.771631906126099807e+02 3.224739639942288250e+01 2.544674476819383457e+01 8.150046479545606815e+01
1.764873977870374233e+02 3.224560996406867730e+01 2.545446511906310150e+01 8.149728217183303514e+01
1.755975802727360531e+02 3.228017898889108039e+01 2.545157663520278035e+01 8.155217468039734285e+01
1.746024973705702337e+02 3.236387848092651609e+01 2.550877585964485661e+01 8.156315810794750121e+01
1.735851599879435980e+02 3.235049244480695307e+01 2.554483712568158182e+01 8.156876468229351929e+01
1.727448386842280570e+02 3.237333942008729792e+01 2.553824892856986750e+01 8.157479341207087487e+01
1.723650771938445132e+02 3.253697385859424429e+01 2.559478432684284499e+01 8.159684191998717040e+01
1.723262364541162412e+02 3.271499616885471085e+01 2.579603453745555797e+01 8.161321961877280273e+01
1.723213924944897428e+02 3.278783233876318803e+01 2.588575873366666613e+01 8.162614650487535073e+01
1.722796090500555408e+02 3.279672010320815900e+01 2.590885855180810537e+01 8.163589206394070175e+01
1.722679746047998890e+02 3.285790771886596673e+01 2.593003668831959274e+01 8.162005390218371303e+01
1.723433344624618258e+02 3.289045719893302078e+01 2.595204113316715677e+01 8.159255427832886198e+01
1.723916212883908941e+02 3.289025092650067705e+01 2.597266380981358225e+01 8.156191954555370671e+01
1.721710057217532324e+02 3.289553844735652888e+01 2.600012128159405478e+01 8.152275493420252417e+01
1.712151488766107548e+02 3.291959873603431674e+01 2.609255159499737431e+01 8.150410717868992094e+01
1.704212508909613177e+02 3.301807089753798863e+01 2.615705316922378643e+01 8.155506743893175781e+01
1.696363303707079808e+02 3.305856818892058158e+01 2.616798294285595361e+01 8.175600243820250057e+01
1.690055269700964118e+02 3.307336691954487407e+01 2.616818538488292134e+01 8.197917104018175394e+01
1.687700003271908145e+02 3.309476817516899416e+01 2.616949916711437751e+01 8.226715209791841232e+01
1.686745778095798016e+02 3.310316250805721694e+01 2.622505096615829245e+01 8.246961328494700183e+01
1.685670818708088916e+02 3.312162255176385628e+01 2.628031049317340262e+01 8.252759027110494117e+01
1.685002210539796010e+02 3.312944902783893752e+01 2.630418988559807758e+01 8.259275445159848061e+01
1.685406706739948675e+02 3.315608728395906013e+01 2.632822214919951875e+01 8.258946405869238561e+01
1.686031108729610253e+02 3.321636755789999995e+01 2.637230219032081635e+01 8.262343418091931824e+01
1.685527758657210313e+02 3.326229836168138121e+01 2.638075573628625392e+01 8.263355054444919290e+01
1.685633782315719600e+02 3.328324942361916072e+01 2.638062040092309957e+01 8.265816188751138327e+01
1.686496146264200320e+02 3.330505749194124832e+01 2.639481182841810281e+01 8.272082501721502013e+01
1.686814425099571793e+02 3.331617106343671963e+01 2.645719466189867930e+01 8.273713700120021031e+01
1.686611992179587958e+02 3.341869458503994395e+01 2.671073221792319430e+01 8.272671154950722894e+01
1.686359262886766714e+02 3.360522109645332023e+01 2.719551875911912475e+01 8.265871550422681935e+01
1.690272118637705887e+02 3.371968866179191338e+01 2.756323985197676762e+01 8.287544084441043424e+01
1.696043733234493800e+02 3.377019798631397407e+01 2.769866320416204175e+01 8.320185646363530907e+01
1.698677766312374615e+02 3.377232303580617412e+01 2.771553837286225530e+01 8.344729840697084455e+01
1.696751324503387082e+02 3.377079373474725799e+01 2.771553837286225530e+01 8.381718556323660607e+01
1.695709213374745730e+02 3.377079373474725799e+01 2.771553837286225530e+01 8.399554316245220775e+01
1.695718506900245757e+02 3.377868683822455154e+01 2.772141803186843134e+01 8.398588229940021677e+01
1.696417656994880190e+02 3.378540693940967543e+01 2.772729644407474936e+01 8.419571775117408663e+01
1.699124500018759250e+02 3.379117289916867151e+01 2.773084435096775024e+01 8.466140315056229326e+01
1.701762913006391500e+02 3.381578917105900217e+01 2.778191443543083139e+01 8.514407429517358139e+01
1.709675250380609270e+02 3.381803887761941496e+01 2.782487844677133637e+01 8.568563455271856810e+01
1.723454139710134143e+02 3.381578917105900928e+01 2.788328346693768012e+01 8.629768837233535805e+01
1.730971927907555425e+02 3.384741751381994135e+01 2.798740081282290149e+01 8.660633926025298024e+01
1.735094001420095537e+02 3.388302687199268348e+01 2.811183908494071204e+01 8.661808883942990178e+01
1.742774905076383902e+02 3.388047931865061457e+01 2.821578350529363277e+01 8.664282151274106525e+01
1.746395351575352493e+02 3.387992488354785792e+01 2.833536573149533311e+01 8.667020766473739002e+01
1.744955241490164610e+02 3.395901192960191395e+01 2.857803570187426700e+01 8.665846109662560082e+01
1.740693465583185002e+02 3.419098479124058798e+01 2.869528902272287851e+01 8.666674976288219057e+01
1.737495836289687077e+02 3.435257100336904301e+01 2.869444140347743755e+01 8.670821009405841551e+01
1.743960776693099604e+02 3.447229526186951887e+01 2.873645639562401044e+01 8.674109288625570002e+01
1.756686698373958677e+02 3.450459484660236598e+01 2.881574481733207094e+01 8.674227274500424301e+01
1.763625559829523297e+02 3.450699172643390966e+01 2.894791947649433439e+01 8.674399793696798611e+01
1.764806749489586082e+02 3.453234701602028167e+01 2.907474367518310743e+01 8.674877972695277606e+01
1.764943428420299085e+02 3.471904290436078355e+01 2.917350789359414875e+01 8.689462904220282269e+01
1.765033755734999943e+02 3.485921752164714604e+01 2.918971191803030152e+01 8.704517272287633034e+01
1.765750193998006807e+02 3.485876865957131798e+01 2.920521875448975280e+01 8.708177853004251290e+01
1.765842385017416802e+02 3.498012796824569648e+01 2.925906754935296661e+01 8.720542246295261180e+01
1.767558186879288655e+02 3.511224817156416833e+01 2.930590879016721573e+01 8.726430577081352169e+01
1.779560023512553357e+02 3.528979079613316827e+01 2.931615314903372393e+01 8.732593540070844540e+01
1.787155548732118291e+02 3.553184140356615472e+01 2.932602531980083782e+01 8.747606226137166630e+01
1.788937172536810749e+02 3.563030185195617605e+01 2.935470664710516076e+01 8.768864657644515148e+01
1.791164327761134984e+02 3.561073167134000528e+01 2.937544303559692338e+01 8.776248867852771696e+01
1.790649675576995605e+02 3.560168277569912476e+01 2.938529528756857445e+01 8.776723672203677040e+01
1.798328125855790347e+02 3.560452452345785446e+01 2.940182783327594152e+01 8.783285673024288087e+01
1.810932108082464538e+02 3.562829078332991628e+01 2.944130637756415680e+01 8.808745138664968977e+01
1.825262844064930619e+02 3.572270161388756549e+01 2.948308256505075420e+01 8.834277724142877730e+01
1.839307433705415065e+02 3.583328652647114154e+01 2.951173027149712524e+01 8.862614988731434096e+01
1.841593870950921428e+02 3.586910994651031359e+01 2.952801262153617756e+01 8.892702505677735303e+01
1.843744311948920824e+02 3.587750877464661414e+01 2.954428599810121980e+01 8.910540167364736419e+01
1.844878540848692126e+02 3.587681578487020317e+01 2.955408196404685839e+01 8.917785776485497706e+01
1.847751502362803819e+02 3.588163586211631895e+01 2.955524523764943723e+01 8.923469786883373445e+01
1.854455744827575643e+02 3.589217548354393017e+01 2.955444968625874580e+01 8.928149695046209899e+01
1.861078457089866731e+02 3.590009590527828465e+01 2.955132208104402025e+01 8.929021719200470386e+01
1.864074444458696860e+02 3.589809681317630208e+01 2.954413270376369738e+01 8.928241398175065058e+01
1.864572965953330197e+02 3.589827701169205909e+01 2.954413270376370093e+01 8.927697153619948267e+01
1.864698160154613049e+02 3.589627781829445752e+01 2.954112290515713468e+01 8.926921328869231331e+01
1.864662718242631172e+02 3.589824750162852496e+01 2.954008553165680695e+01 8.926881254254126929e+01
1.864885435624397303e+02 3.591815451283903116e+01 2.953743234232792503e+01 8.927106343660324228e+01
1.864440539616106491e+02 3.593267809123303635e+01 2.953698046750208661e+01 8.927756017101221175e+01
1.862756543685727593e+02 3.593385127343730545e+01 2.953698046750208661e+01 8.929004098409878054e+01
1.861265106190947449e+02 3.597211687490064946e+01 2.953698046750208661e+01 8.930579230581130901e+01
1.861454895807040089e+02 3.600965138081981820e+01 2.953709938260017864e+01 8.932407765141140032e+01
1.861891617856420282e+02 3.601315244233479973e+01 2.953673704012682322e+01 8.933633867855066057e+01
1.861304274642917846e+02 3.602119652179133169e+01 2.953673704012682322e+01 8.934146775189022094e+01
1.860919048815396195e+02 3.601639512196511106e+01 2.954404710424081060e+01 8.934870591569138298e+01
1.860624278827941964e+02 3.602923125733943976e+01 2.954416599089572415e+01 8.939763460022514607e+01
1.860549051007255628e+02 3.603981589790443252e+01 2.954532965491499752e+01 8.943595712483526938e+01
1.860085837998880720e+02 3.604464140046587772e+01 2.954633215980622296e+01 8.944385705164648925e+01
1.858526484181487035e+02 3.604595667433697770e+01 2.955171025199048529e+01 8.943904531785156564e+01
1.856366777574948514e+02 3.606849160187940839e+01 2.956577832998143052e+01 8.943717085333538819e+01
1.856385094101974857e+02 3.607564282534008981e+01 2.958757767066441602e+01 8.945016891391935587e+01
1.856903454615774365e+02 3.607896789111599389e+01 2.959475649397371910e+01 8.945244555543858667e+01
1.858782408353381754e+02 3.609228041315083857e+01 2.959448254417703694e+01 8.944211263848463034e+01
1.863615814507914763e+02 3.614789005674944633e+01 2.959629067733994745e+01 8.942566253185960079e+01
1.867813641561705253e+02 3.620131281350873564e+01 2.960444419504611346e+01 8.940975552116989888e+01
1.870794413890526471e+02 3.622447859567034101e+01 2.968153237448497350e+01 8.940412483106528896e+01
1.874739616737214760e+02 3.623825817937232330e+01 2.986444568810209077e+01 8.941868251595248296e+01
1.882283666997086300e+02 3.623807096312079778e+01 2.997079143862569950e+01 8.945442229997374284e+01
1.895736529226568905e+02 3.624904791294311224e+01 2.999884337666370016e+01 8.948621704349430672e+01
1.908556098773100587e+02 3.623952425784374753e+01 2.997387554951143684e+01 8.950789363928770115e+01
1.915028362276652558e+02 3.623754389076121640e+01 2.996371208407929387e+01 8.950789363928770115e+01
1.916175276347129568e+02 3.627040580282376681e+01 2.995762145327294590e+01 8.954995675834823032e+01
1.916172516764604268e+02 3.632819668496513543e+01 2.997548847871539834e+01 8.967161173114955375e+01
1.915974997666722857e+02 3.638240146932091790e+01 2.997461750644367129e+01 8.974541877619921593e+01
1.915816651019611356e+02 3.641373048482552832e+01 3.022952213611057459e+01 8.972501844403286952e+01
1.916570686701640795e+02 3.644691986594813926e+01 3.136600478635427791e+01 8.970772461132897035e+01
1.920694590028305129e+02 3.650697183509169719e+01 3.177129649381024734e+01 9.009018108515140000e+01
1.921095413373317626e+02 3.653443091780927432e+01 3.178368012325821468e+01 9.056144364342938502e+01
1.921143190270834111e+02 3.653615904107662260e+01 3.188362503508029988e+01 9.059019369598108540e+01
1.921531344382390785e+02 3.653664417405506271e+01 3.229168726123798194e+01 9.055821918336312137e+01
1.921751125885971305e+02 3.654728784440113998e+01 3.269465685670365218e+01 9.053939293432097202e+01
1.921329583305268898e+02 3.657976419873212848e+01 3.283683693320048747e+01 9.062931442784966407e+01
1.921599652915247134e+02 3.660803632912922012e+01 3.284094212439099891e+01 9.062200798545225666e+01
1.921351411003202827e+02 3.661570767974009755e+01 3.283583949920573275e+01 9.061442335556760952e+01
1.922452471777650658e+02 3.662842473974064461e+01 3.284427708715171690e+01 9.062116536120043975e+01
1.924376459470443024e+02 3.664876113497123811e+01 3.285560659031573749e+01 9.065032424377771747e+01
1.924380035046091848e+02 3.664901259217649709e+01 3.284550700868535955e+01 9.067436323494109729e+01
1.925424019171880730e+02 3.665909631521456902e+01 3.284781600925089151e+01 9.067700366470378981e+01
1.929309062707164628e+02 3.668465958383028891e+01 3.284688306822428672e+01 9.071345957204313493e+01
1.932826549384087684e+02 3.669701084477469522e+01 3.284289714044117403e+01 9.081524128622557157e+01
1.934679499329022860e+02 3.669944939870594425e+01 3.285350114093776597e+01 9.076575404564968608e+01
1.934161667597618077e+02 3.670089302212565485e+01 3.288940986180200809e+01 9.074048339131054774e+01
1.934140285564622275e+02 3.668074594999641391e+01 3.293149752224455540e+01 9.103722687403966063e+01
1.934006574467625512e+02 3.667687995501859888e+01 3.297270860238204904e+01 9.214160369320347854e+01
1.935469280480576231e+02 3.667863135552967435e+01 3.297270860238204904e+01 9.280062922377574353e+01
1.937222973083893578e+02 3.668478496790613264e+01 3.297868370110607117e+01 9.276765711767239964e+01
1.939665566494388997e+02 3.676427654097808073e+01 3.298467751089282984e+01 9.270418675080809123e+01
1.942479801759595830e+02 3.681176423312043511e+01 3.298018225446304541e+01 9.266072816180201244e+01
1.946557046480785402e+02 3.682203762361400123e+01 3.298007575396999158e+01 9.270395667245655602e+01
1.945996762156607076e+02 3.679296644280685769e+01 3.296925652934259432e+01 9.271466951176265070e+01
1.943882518899740148e+02 3.675753559867933262e+01 3.295961954782850967e+01 9.271466951176265070e+01
1.944795896911549278e+02 3.674689950433249663e+01 3.295598830831202974e+01 9.290228331436227904e+01
1.944922434608639605e+02 3.676490069375288527e+01 3.299686899961265851e+01 9.302807136433982294e+01
1.945317871198431590e+02 3.678471614110283383e+01 3.308152477165463523e+01 9.303949925550637090e+01
1.945711753288240118e+02 3.678751670347127600e+01 3.310322785617135111e+01 9.309224769762178653e+01
1.945675380160832049e+02 3.675982220824131730e+01 3.311518802630597946e+01 9.311651029634167287e+01
1.945794510199881984e+02 3.673747648793411713e+01 3.312714387836052055e+01 9.313328356061562374e+01
1.945028502805035657e+02 3.671041078324847007e+01 3.314619969434805569e+01 9.313497752292299481e+01
1.943183047456929273e+02 3.667311017273435425e+01 3.316055346850529872e+01 9.312661729986423609e+01
1.942122072086098115e+02 3.666019363226065764e+01 3.316201514651362459e+01 9.312599700568063099e+01
1.942168698543975438e+02 3.666783702422117130e+01 3.313915103465384959e+01 9.312599700568063099e+01
1.942163012150112706e+02 3.669717091559209621e+01 3.314171961889725537e+01 9.312474634128516016e+01
1.942445226780924941e+02 3.669909974311148204e+01 3.314962063037221185e+01 9.312531488531303125e+01
1.942450084631262257e+02 3.669127480707339117e+01 3.338820931672734815e+01 9.312901118374466591e+01
1.942534060057634804e+02 3.669657140944067208e+01 3.383199559850998384e+01 9.312567611886301222e+01
1.942755352113075276e+02 3.668309969502093537e+01 3.392491795623976714e+01 9.312160567749769768e+01
1.942645391604962697e+02 3.666769265327238259e+01 3.393218748647954897e+01 9.315283373128649202e+01
1.943161096441568532e+02 3.671242351949602778e+01 3.413086592657150220e+01 9.344558790773398016e+01
1.942764770198388931e+02 3.675080266853381517e+01 3.440742629517063023e+01 9.354638181099632277e+01
1.941992899576102616e+02 3.675193383149851911e+01 3.455706636301176360e+01 9.353723234767018369e+01
1.941144806242954814e+02 3.676013426791101324e+01 3.461810961588744817e+01 9.362091598502640011e+01
1.938994117805414703e+02 3.672360177735174602e+01 3.462998212788448882e+01 9.389458707441751528e+01
1.934978002501319736e+02 3.664488234912908382e+01 3.462268557488859955e+01 9.372998569711850791e+01
1.931998662816306762e+02 3.662248467278235609e+01 3.463547757455639697e+01 9.334212309510662919e+01
1.927144327175315084e+02 3.667257493634053844e+01 3.467679185763295635e+01 9.285338898346883241e+01
1.924977610821486280e+02 3.671159059309260186e+01 3.471017012372021071e+01 9.254732607847385850e+01
1.922509310501251605e+02 3.684074489051732826e+01 3.473528502398676920e+01 9.242391946277778914e+01
1.921149021435869315e+02 3.697771672680965338e+01 3.476989116257914958e+01 9.249255523371616050e+01
1.920083849857604150e+02 3.706575706940542858e+01 3.481787907523374059e+01 9.263020674521911246e+01
1.920016079371211504e+02 3.716537161653096177e+01 3.481999058841917360e+01 9.266190239709469267e+01
1.922297970951433399e+02 3.725615482943516810e+01 3.483340079087311381e+01 9.229302590659473537e+01
1.915355026976460806e+02 3.732878879624740165e+01 3.486657793500244651e+01 9.128459722170384794e+01
1.908819458975625594e+02 3.738506818693142719e+01 3.488471202256942405e+01 9.036767665020148854e+01
1.899552766922782610e+02 3.740907332838089872e+01 3.488814251658576637e+01 8.983181343144552500e+01
1.886788920320447573e+02 3.740936578676760860e+01 3.488341966633431213e+01 8.939011893258692965e+01
1.877917121409781203e+02 3.741868181156099382e+01 3.486705223126267583e+01 8.917503198815633425e+01
1.872552471404740118e+02 3.744933450207332015e+01 3.484365802979932880e+01 8.918163395024431850e+01
1.872515370084849167e+02 3.753806582312829221e+01 3.482559867593950997e+01 8.922684644168874968e+01
1.872769562654198978e+02 3.771856933918418520e+01 3.481770010465366028e+01 8.926262891286235401e+01
1.872557426452924574e+02 3.780782116945530191e+01 3.487225484561615474e+01 8.928869466538696997e+01
1.873834004132703228e+02 3.779554344286522394e+01 3.487225484561615474e+01 8.928574185125361851e+01
1.874180381074351089e+02 3.779504643990857460e+01 3.487357084007314256e+01 8.925862042945041708e+01
1.874487404407935855e+02 3.780482448129487238e+01 3.486959474065621833e+01 8.922964485660227751e+01
1.876497815933714435e+02 3.781000038342826031e+01 3.487939635856101717e+01 8.923968336270232271e+01
1.879752621427617783e+02 3.781921771985127378e+01 3.490490944863773137e+01 8.924077233317760260e+01
1.883898468220620259e+02 3.784185741505710610e+01 3.492022326528854848e+01 8.923892127128182494e+01
1.885515801133472280e+02 3.781171169723535996e+01 3.494648626139113645e+01 8.920856179572695055e+01
1.884482172779567577e+02 3.777377915726082591e+01 3.498897927430292043e+01 8.919647215868668866e+01
1.881511922344368202e+02 3.778848499646657189e+01 3.502776975740247423e+01 8.918226610686325273e+01
1.880013766291087336e+02 3.779176826393342736e+01 3.505306852327766620e+01 8.914942223336075244e+01
1.885167720369728670e+02 3.782598774292852539e+01 3.504823372578994167e+01 8.908952943795006263e+01
1.895543239898261731e+02 3.789957534654153903e+01 3.505788709573923256e+01 8.903399391368465388e+01
1.897891222574149594e+02 3.790988804460975814e+01 3.506134378168639643e+01 8.902784279154117542e+01
1.897221427035863996e+02 3.791293025140867456e+01 3.505308691367422114e+01 8.902289502104895291e+01
1.897079952960338574e+02 3.790965747750185244e+01 3.505308691367422824e+01 8.899123442172287923e+01
1.897544137395491362e+02 3.792371922875592816e+01 3.514928483508020918e+01 8.897730717800298805e+01
1.898498106800214771e+02 3.791549747717300534e+01 3.518969176019589895e+01 8.896671816663823051e+01
1.901104283684616689e+02 3.794574884061250941e+01 3.518969176019589895e+01 8.895116164852507268e+01
1.902261917004070142e+02 3.795955971409809848e+01 3.520854647749036559e+01 8.893104236464360213e+01
1.904136444439840830e+02 3.796294918831841869e+01 3.524289614344427690e+01 8.892239521445297612e+01
1.904290410479451907e+02 3.795563798376791453e+01 3.524902286443695942e+01 8.892122809113338633e+01
1.903739805562724428e+02 3.795310657229759954e+01 3.524848618277952994e+01 8.893969835048559958e+01
1.901689026335273525e+02 3.795269018389665661e+01 3.524955813081349021e+01 8.893969835048559958e+01
1.900579551611560873e+02 3.795269018389665661e+01 3.526243373248079394e+01 8.893854764278930247e+01
1.904713257853790935e+02 3.792081871876597887e+01 3.529514601099702986e+01 8.894943606886275234e+01
1.909993882064547677e+02 3.791662191328290987e+01 3.535104369969293003e+01 8.901021877340096466e+01
1.913782876442361953e+02 3.795915277920261133e+01 3.542398556822197975e+01 8.897759869575058644e+01
1.917014854194928262e+02 3.797235974593685626e+01 3.546643986781869273e+01 8.895407313474765942e+01
1.917301171836078879e+02 3.797170498754977075e+01 3.546804768376178174e+01 8.896190514511648928e+01
1.916624777614022719e+02 3.797424964202512854e+01 3.547082134399483522e+01 8.922783559828944533e+01
1.915961531097115085e+02 3.796553681900001465e+01 3.548798413572683330e+01 8.927783461118463038e+01
1.916597070769962556e+02 3.800970384215297315e+01 3.555502419092974975e+01 8.910545548884967104e+01
1.916909468369333638e+02 3.808014573127110936e+01 3.567765130971486798e+01 8.924317624772236002e+01
1.917139391302573301e+02 3.808031560419169637e+01 3.575961052720791855e+01 8.959772525391126408e+01
1.917596324528184368e+02 3.808031560419169637e+01 3.581551272308689704e+01 8.985746751863217696e+01
1.917410961772150131e+02 3.809552908896500156e+01 3.585378930849010715e+01 8.993761593880154237e+01
1.916783882591879831e+02 3.810819480909819390e+01 3.585759588954060462e+01 8.993761593880154237e+01
1.916318948986311170e+02 3.811233763820029452e+01 3.586214066920154409e+01 8.993849892725974371e+01
1.915617358013859928e+02 3.814400901611565331e+01 3.589451454829274013e+01 8.993646348192355333e+01
1.915456726862812786e+02 3.820092929037432583e+01 3.589461240155128507e+01 8.995883484265846164e+01
1.915379714585074282e+02 3.825822818037332951e+01 3.590649646982561904e+01 9.003985152606244924e+01
1.917060375784759003e+02 3.827445711082233970e+01 3.590649646982561904e+01 9.020061770022441294e+01
1.918152744388204667e+02 3.827468253743604976e+01 3.592397771207414081e+01 9.020665090813446341e+01
1.918148999760967683e+02 3.827468253743604976e+01 3.592870363508262699e+01 9.049472755327812479e+01
1.918168626019099747e+02 3.827154823775548920e+01 3.600541822472833786e+01 9.068860527796221049e+01
1.918473890946655729e+02 3.829004421110243328e+01 3.604896659736031239e+01 9.076848113661868922e+01
1.920573855055827153e+02 3.829658916798612722e+01 3.605426684898196044e+01 9.076338734303625699e+01
1.922266112192586434e+02 3.830587574817792529e+01 3.605494144576578464e+01 9.075621664074607509e+01
1.923200293075061325e+02 3.833010033530887739e+01 3.609665366786234131e+01 9.078158798057769729e+01
1.928795864554878676e+02 3.832287344734881174e+01 3.613006178707143334e+01 9.142361400634976576e+01
1.938470254196334395e+02 3.832461804369152247e+01 3.617168738250400395e+01 9.265312999445134778e+01
1.941618738044109875e+02 3.831533600611525969e+01 3.621339201921851725e+01 9.305018846684495770e+01
1.943276432874129398e+02 3.831511081868587354e+01 3.624508483667267456e+01 9.311059622138628811e+01
1.948733303477928871e+02 3.831299720192673419e+01 3.627845308633762045e+01 9.314080427286081942e+01
1.957229815101946997e+02 3.834570141482413419e+01 3.628270370434925951e+01 9.315590448823968472e+01
1.958149322008922297e+02 3.841931038676834476e+01 3.628612866561545047e+01 9.323202691869731495e+01
1.958071683632650206e+02 3.841444118915236317e+01 3.630926334391265442e+01 9.389981780831827507e+01
1.964783968543107449e+02 3.844894079626701000e+01 3.640455029495075934e+01 9.472525497983822618e+01
1.974848685364021037e+02 3.854659645928347800e+01 3.648478038110685162e+01 9.549934071790950441e+01
1.987953619379487122e+02 3.857976629661605728e+01 3.650063410870555458e+01 9.622877820864556497e+01
2.000985570043922905e+02 3.858141398387111565e+01 3.650391274504144690e+01 9.664049369966693348e+01
2.008974770972498618e+02 3.864334683825292416e+01 3.650400896473699675e+01 9.689931955293613441e+01
2.009940079983481098e+02 3.866344201587393314e+01 3.652612029681771588e+01 9.711140075855510645e+01
2.010973788154386170e+02 3.869138257934849889e+01 3.657833698704192216e+01 9.728492910433438112e+01
2.014864110336973226e+02 3.874092673794530839e+01 3.661891566851207358e+01 9.727373027853940357e+01
2.018062443415466589e+02 3.877283816464191091e+01 3.664867818759086759e+01 9.730766516136006317e+01
2.012801849682178954e+02 3.877022864597928020e+01 3.668167930203848925e+01 9.732209763136374647e+01
2.006122184435434974e+02 3.878378323279175532e+01 3.669989271615925475e+01 9.736939848149776822e+01
1.997821654163354026e+02 3.878424025135526421e+01 3.670231545962187170e+01 9.718801042602271423e+01
1.989875735136241985e+02 3.878684278405302166e+01 3.670231545962187170e+01 9.674384701196953529e+01
1.988415914099462043e+02 3.880866025457263646e+01 3.670241273509956415e+01 9.657131630877100292e+01
1.991444631980512554e+02 3.881598557065778010e+01 3.673395046898167493e+01 9.652545728740182085e+01
1.993935099606805181e+02 3.882569942338252389e+01 3.673511742975104255e+01 9.643072379808228334e+01
1.994612707149937023e+02 3.886047089277456479e+01 3.683898437820455030e+01 9.639300600193303126e+01
1.993903347909321440e+02 3.884992701608133103e+01 3.691293096704187349e+01 9.638103776771669118e+01
1.991983838750706184e+02 3.884773148634094753e+01 3.691710696489635524e+01 9.637422911108221513e+01
1.984401750735974304e+02 3.886505818832016956e+01 3.691701025513305012e+01 9.640749714973085815e+01
1.979806084808307958e+02 3.889286186891941810e+01 3.692205696893930167e+01 9.650756493903487865e+01
1.979635219812983848e+02 3.891593694492672029e+01 3.692391923208585069e+01 9.657194771379194265e+01
1.979127576202201340e+02 3.890216516795492652e+01 3.694011718575888636e+01 9.657963434959791016e+01
1.979149358306239606e+02 3.883901942507704774e+01 3.694127629112993816e+01 9.656827964534747366e+01
1.979213187426761351e+02 3.881511245663875087e+01 3.695242475965006435e+01 9.656715267934208669e+01
1.981001196729573053e+02 3.881752904700202578e+01 3.699166280471315815e+01 9.653035880817685666e+01
1.988162987665749881e+02 3.881329586943344623e+01 3.704205931556180076e+01 9.645649160339270622e+01
1.992269474023030114e+02 3.881375559920536489e+01 3.710619550772618425e+01 9.646117268239088105e+01
1.993944320868564262e+02 3.881443455668065923e+01 3.713748492207837870e+01 9.647781939386568695e+01
1.993216092209773365e+02 3.879303479519889919e+01 3.717809351671490958e+01 9.644712938120743217e+01
1.987420261224082481e+02 3.877635553420210357e+01 3.722136051808959678e+01 9.640285493674639383e+01
1.980805861401868810e+02 3.876255552679904781e+01 3.723890961800034916e+01 9.713144900093911360e+01
1.975708096982952497e+02 3.871822832493130306e+01 3.735516726903520635e+01 9.754636449748072380e+01
1.973711141926295056e+02 3.864357229218738610e+01 3.743161402154066053e+01 9.762943861497601006e+01
1.971881407023251711e+02 3.863667305115067307e+01 3.742898566535832572e+01 9.754893935665678839e+01
1.972266184429474833e+02 3.856210508268680570e+01 3.743584916437183097e+01 9.721955959858097174e+01
1.971233152400801032e+02 3.849188581551761246e+01 3.747026183118553178e+01 9.701482503402269231e+01
1.967406716468152865e+02 3.855677483929613203e+01 3.760003529277066292e+01 9.705452813153732450e+01
1.964138886536285327e+02 3.860351333969719434e+01 3.767645812782299686e+01 9.714688765127117165e+01
1.963403210164432551e+02 3.858780496730600618e+01 3.766827096559649135e+01 9.710542217587733660e+01
1.961907056188951799e+02 3.857570841494484171e+01 3.766253779576728533e+01 9.687207110388095543e+01
1.961198554293776226e+02 3.859622793635210058e+01 3.766280045797974907e+01 9.678567220001471583e+01
1.962188593954209637e+02 3.860963243865680283e+01 3.766358689792568981e+01 9.676963172046987438e+01
1.963649558124870111e+02 3.859693014849988657e+01 3.766372755128732308e+01 9.679912868620617417e+01
1.966979266815997391e+02 3.848784740540204297e+01 3.766690494874246298e+01 9.690672478135201118e+01
1.967100320127064208e+02 3.829539745689438490e+01 3.764446390025496925e+01 9.703233901998190447e+01
1.966213813725251498e+02 3.814097358705175367e+01 3.761184721357885508e+01 9.717407107472325833e+01
1.963707901049440352e+02 3.813901796229393426e+01 3.761115307907482475e+01 9.740613217497501353e+01
1.963707901049440068e+02 3.808151598988910536e+01 3.760629377880249535e+01 9.766294695018866889e+01
1.963664643854443455e+02 3.805095405034560940e+01 3.760143385055415166e+01 9.782264634331204434e+01
1.962852054293445008e+02 3.812382553218104420e+01 3.760079996725601603e+01 9.794619587049838572e+01
1.962695760061654937e+02 3.822280330110346824e+01 3.760211541625816523e+01 9.799999845147294764e+01
1.962968490812829430e+02 3.827332995783764602e+01 3.761792643856914964e+01 9.802202970629629419e+01
1.962826616123797692e+02 3.826820651395680528e+01 3.760893017911570269e+01 9.823163292413515535e+01
1.962980255714253985e+02 3.826391256429717203e+01 3.760785076466880383e+01 9.835778460299265191e+01
1.964475823685289697e+02 3.828816370117767320e+01 3.761037323209648520e+01 9.848171284325853492e+01
1.964937482222779863e+02 3.829003286890091573e+01 3.761046815897935858e+01 9.875180033576788219e+01
1.966204125456967233e+02 3.822764042288658715e+01 3.760619949872095447e+01 9.890348309745569111e+01
1.967956400717251029e+02 3.820200303904032779e+01 3.760786966284583599e+01 9.945134115138267816e+01
1.967921098053475646e+02 3.819310088250904300e+01 3.760849485658260249e+01 9.986420469101379638e+01
1.967631285155833609e+02 3.817793954185470540e+01 3.760835399665345591e+01 9.988750398914788775e+01
1.967682963610753291e+02 3.816995029087907909e+01 3.761409542522058302e+01 9.981098454129201514e+01
1.967813691670021115e+02 3.817023691946619124e+01 3.761604975881439117e+01 9.961235998627564925e+01
1.966491290843668196e+02 3.816905232298604744e+01 3.761668338513644017e+01 9.964245161500545578e+01
1.964557028483519900e+02 3.816905232298604744e+01 3.761457089078114535e+01 9.963659444097521600e+01
1.963399591770354959e+02 3.818628032764533486e+01 3.761134886091696927e+01 9.962943880926312090e+01
1.962654099917761243e+02 3.825445356880921111e+01 3.770283470639310508e+01 9.975158117327617902e+01
1.963033739069198305e+02 3.823497121791575637e+01 3.781849815444289220e+01 9.984464402932205473e+01
1.963916118515248002e+02 3.840478646880941227e+01 3.780599269451339239e+01 9.993662428403663966e+01
1.963330995671386177e+02 3.861862534315335438e+01 3.779956109715561041e+01 1.002089453101303889e+02
1.963336352315618285e+02 3.872023887023657807e+01 3.780025177188109353e+01 1.003653399844556446e+02
1.962893790851659332e+02 3.883860271063888092e+01 3.780596405777268387e+01 1.003465132569905052e+02
1.963304688224422705e+02 3.882009335427783725e+01 3.780840882472575259e+01 1.000164216180958192e+02
1.964057956925914823e+02 3.872676680172056507e+01 3.782091348576340550e+01 9.977098590596719418e+01
1.963744629793802403e+02 3.873811363685011600e+01 3.787715366414958140e+01 9.976447664432150475e+01
1.963594183553210257e+02 3.874981037762007929e+01 3.794908301945648077e+01 9.984984386438486581e+01
1.962194309869437348e+02 3.873641904540883729e+01 3.804705059709096560e+01 9.991867089566079585e+01
1.959273626384022577e+02 3.871189874110429940e+01 3.805521012762378774e+01 9.984097242719896315e+01
1.956350284382630207e+02 3.869681613545890286e+01 3.805521012762379485e+01 9.940673211787706975e+01
1.955253793798646029e+02 3.871035904812620032e+01 3.806797760135938802e+01 9.927701348265554770e+01
1.955192549311703658e+02 3.871094665967469695e+01 3.806838226898538124e+01 9.929720496507125915e+01
1.954746406284968430e+02 3.871978439792133742e+01 3.807243153067059183e+01 9.930677006828575770e+01
1.954534814999210539e+02 3.874777837358135457e+01 3.807158667691169995e+01 9.938644927733042778e+01
1.956450686300065911e+02 3.882106931493316893e+01 3.807438361021226569e+01 9.955060281650085585e+01
1.955763850878730068e+02 3.890042550077714623e+01 3.811159572331759904e+01 9.962771461694468655e+01
1.955817604973428558e+02 3.899683999139989510e+01 3.825152221307800460e+01 9.966950826811932984e+01
1.956842521186617887e+02 3.900915675387228276e+01 3.833960418493649769e+01 9.967852210198229557e+01
1.955389638451630390e+02 3.903272382648751204e+01 3.833969730628555794e+01 9.969398056991893498e+01
1.954450366441675158e+02 3.905659696843602546e+01 3.833929550236415906e+01 9.969987517562584856e+01
1.955258061250227399e+02 3.908355909733460010e+01 3.834176984879024275e+01 9.969702558135176673e+01
1.955792866477428902e+02 3.922794783766856597e+01 3.834288787581864710e+01 9.967870353575385423e+01
1.955800339074517922e+02 3.935782225455967165e+01 3.834387331631483420e+01 9.961434633710500464e+01
1.955814152930691705e+02 3.940672060357445616e+01 3.834387331631482709e+01 9.957143917868906158e+01
1.956281312205378811e+02 3.945745276228787901e+01 3.833376423490915386e+01 1.000723439438124984e+02
1.958374260861288576e+02 3.948790435878029115e+01 3.830029509569867940e+01 1.006798424231751312e+02
1.958704950604862915e+02 3.933109357011972662e+01 3.824715698842987877e+01 1.009405646758297763e+02
1.958551263174900328e+02 3.922017030230125556e+01 3.821031589633354741e+01 1.011157466218229928e+02
1.959261235650825199e+02 3.923254200458483609e+01 3.821022245967171216e+01 1.011459345313594014e+02
1.964854167597177650e+02 3.923798130767577419e+01 3.821254944566771883e+01 1.010751235064726927e+02
1.976452394773018000e+02 3.922976909688415503e+01 3.821757515617128576e+01 1.010932049607458936e+02
1.981943817226915598e+02 3.917875814581391580e+01 3.824230913239419749e+01 1.011919826160586240e+02
1.983159688619148540e+02 3.917922045074634241e+01 3.826362547090383259e+01 1.011114395264059311e+02
1.981712240726185428e+02 3.919000689403928561e+01 3.827632342555382650e+01 1.006406571844370319e+02
1.981381157719028465e+02 3.917529143777806411e+01 3.827632342555382650e+01 1.003249854054082277e+02
1.981127388151503510e+02 3.917814724811329086e+01 3.827681765373919376e+01 1.002559597085149505e+02
1.981470844621236722e+02 3.920544983657476479e+01 3.827681765373920086e+01 1.002536056212545361e+02
1.983075858479447504e+02 3.923309727710580574e+01 3.827620337621797830e+01 1.002465083945007365e+02
1.983321787951717567e+02 3.922253055555586343e+01 3.828050764472175871e+01 1.002161602819726909e+02
1.982553315884341600e+02 3.920674515481803013e+01 3.828137465788815064e+01 1.005442696525036865e+02
1.982026346808739845e+02 3.919516284621756341e+01 3.828069266376459723e+01 1.013633324622306731e+02
1.981980155481885504e+02 3.921929009362841612e+01 3.828908062747917285e+01 1.016124811667446721e+02
1.981997311159628623e+02 3.921339618627177259e+01 3.829230627812329857e+01 1.018136278747694945e+02
1.981302822368150487e+02 3.917764975809780026e+01 3.830465296981034840e+01 1.019522122442766658e+02
1.979312099575000730e+02 3.914677561019358620e+01 3.831612947594786789e+01 1.019213917738994866e+02
1.977425549507237008e+02 3.912851122589316333e+01 3.832760254565371127e+01 1.019596153258503222e+02
1.977338542405927342e+02 3.912611384307817985e+01 3.834491434046503855e+01 1.019406836064092658e+02
1.978717683047280502e+02 3.906464334008671102e+01 3.837975395566783732e+01 1.022076651774319771e+02
1.980681014783551177e+02 3.896598937306114863e+01 3.839694064606711521e+01 1.027240722391561718e+02
1.984310101875207693e+02 3.891440707100881724e+01 3.841977314375503738e+01 1.029758382573733115e+02
1.993114595923675836e+02 3.890728068328832734e+01 3.843359360270128633e+01 1.031162600886755172e+02
2.006008882453913316e+02 3.896424927453602294e+01 3.843319278042875453e+01 1.030828708160997564e+02
2.017791335218782933e+02 3.910466903863929389e+01 3.843430685751469156e+01 1.031078175426514747e+02
2.020092462597689575e+02 3.923743991557273603e+01 3.850056768539395335e+01 1.034147632321196966e+02
2.024112842586597765e+02 3.917632102424686735e+01 3.857401055759694941e+01 1.040829934550727103e+02
2.031483529208149150e+02 3.907543991044563114e+01 3.858389154994090120e+01 1.048357793280298722e+02
2.034815777352828832e+02 3.907668731824872310e+01 3.858567360792864065e+01 1.056423498792444917e+02
2.044056209736903611e+02 3.908002396495572839e+01 3.859308368837091052e+01 1.064136039100673798e+02
2.056408037176473442e+02 3.908374363962823850e+01 3.859604732220128653e+01 1.071448797689466943e+02
2.069098340070862037e+02 3.903856568174835928e+01 3.859002452574500097e+01 1.075606513375997935e+02
2.079150086108262769e+02 3.899333538039777380e+01 3.858811930656379019e+01 1.076925240052532189e+02
2.080256301556131859e+02 3.897623976845612503e+01 3.859373446684838171e+01 1.077510869961971167e+02
2.082089831818981907e+02 3.897041479047296519e+01 3.859099594798767185e+01 1.078105360318525356e+02
2.077787418097432521e+02 3.896240292018509166e+01 3.861484204522402308e+01 1.078238464959493115e+02
2.070252784508209913e+02 3.896001448504411968e+01 3.861642920749665819e+01 1.078139149978117359e+02
2.065408737970282971e+02 3.896231140347700261e+01 3.861207141940977294e+01 1.080453157554830881e+02
2.064245917443945757e+02 3.897071581493187153e+01 3.865492058842705347e+01 1.094045489099761994e+02
2.064813351662565140e+02 3.896889942481714542e+01 3.866240824492961536e+01 1.105635367143347167e+02
2.065685649696970643e+02 3.892496127107703785e+01 3.865814649795824920e+01 1.112784309647743157e+02
2.066162260889496736e+02 3.894030604546974672e+01 3.863775710593979795e+01 1.119064757547511419e+02
2.068693931620624369e+02 3.895124938460272546e+01 3.864062470428759610e+01 1.119719736246323976e+02
2.080863424082415918e+02 3.897834579602945837e+01 3.865779632128040788e+01 1.120178389012900624e+02
2.092931163570363537e+02 3.896297485470251587e+01 3.864904211099676701e+01 1.119509179589372962e+02
2.103977041434624482e+02 3.880269960687676445e+01 3.863034682445398005e+01 1.116837705595970220e+02
2.107940258793876751e+02 3.873979474229113151e+01 3.865135678986704448e+01 1.123902724175393644e+02
2.108188913699148941e+02 3.874362806253669334e+01 3.865325867889538358e+01 1.127968940059759717e+02
2.104749709624400111e+02 3.876527460956322813e+01 3.867364225021482582e+01 1.128181180168417939e+02
2.105571007571104474e+02 3.881037558774089291e+01 3.868994137521535492e+01 1.128845531238975184e+02
2.107689555262822978e+02 3.884274365637482873e+01 3.869977290808824932e+01 1.128756115180867567e+02
2.109504749595031399e+02 3.887508477480377422e+01 3.868338563178772205e+01 1.128358777564803290e+02
2.113711185399745318e+02 3.886347712194806547e+01 3.866794914160306718e+01 1.128358777564803290e+02
2.118625762328966857e+02 3.881196856960724517e+01 3.866277826253050165e+01 1.128628325566129007e+02
2.129334678401682481e+02 3.873773803663357285e+01 3.864582442150252461e+01 1.128886738956956037e+02
2.141159484840864593e+02 3.866837829038322383e+01 3.863694065447729997e+01 1.128580299969038094e+02
2.148144883885627792e+02 3.862364235173642157e+01 3.865711112974688746e+01 1.128588795819305659e+02
2.146570368267482820e+02 3.857885453744724913e+01 3.867095896532178045e+01 1.128929807138691785e+02
2.143560283137378235e+02 3.855675944381453490e+01 3.868591679381012938e+01 1.129522438768203756e+02
2.140657544962294310e+02 3.855172959900564678e+01 3.869527456754378392e+01 1.130391086886689180e+02
2.139637767381197762e+02 3.861775189220860227e+01 3.869092565987018162e+01 1.130722004788476056e+02
2.139584400149710461e+02 3.869286632935733650e+01 3.866504573303387104e+01 1.130852108593428653e+02
2.139296486531027028e+02 3.869775629303135389e+01 3.859739523151272067e+01 1.131388965843697036e+02
2.139296736201875433e+02 3.864517262179302293e+01 3.851541874026038670e+01 1.132558868083923187e+02
2.139423360479172800e+02 3.854790093906776605e+01 3.846442009256867323e+01 1.132898559545177193e+02
2.139536266802691102e+02 3.839693165286580268e+01 3.843569462592813579e+01 1.133863940637589849e+02
2.139271593455117397e+02 3.829702049657189633e+01 3.842893357169310065e+01 1.135688582963160087e+02
2.138985684085799619e+02 3.826172995054172077e+01 3.842785740498162284e+01 1.135968043658889144e+02
2.136667795199805369e+02 3.825151211000049756e+01 3.842142558231801530e+01 1.134890294537554496e+02
2.135705948281269571e+02 3.831386568204146670e+01 3.841070348454452699e+01 1.134037345297266057e+02
2.137142401732743053e+02 3.841959359608299707e+01 3.840365934774447254e+01 1.132187827369442061e+02
2.137940399806317657e+02 3.850972989892530762e+01 3.841839620517234977e+01 1.127249447498735435e+02
2.137898352720258970e+02 3.863361452873454027e+01 3.842576111643855796e+01 1.121861811782926708e+02
2.141207769816838038e+02 3.881151370656455413e+01 3.843792712123796917e+01 1.117637578877072428e+02
2.147535397036332085e+02 3.889871056279605455e+01 3.848346722551908528e+01 1.115549987553913951e+02
2.151101048970967895e+02 3.890812554494902287e+01 3.858249048593935981e+01 1.115263116124413756e+02
2.149956881056920110e+02 3.887632516834440111e+01 3.862688196292319986e+01 1.112562676507802024e+02
2.148017848008717010e+02 3.888826352695006960e+01 3.862918384974761210e+01 1.108875612833500384e+02
2.145650378026205658e+02 3.890927319300865150e+01 3.863617296495088027e+01 1.105872655169453509e+02
2.141664610811879754e+02 3.895668183313591015e+01 3.872050167156413636e+01 1.103830808917533801e+02
2.135518274031856834e+02 3.900055693185480976e+01 3.881533683400932944e+01 1.101420510332998930e+02
2.133742665516158183e+02 3.901969211199453014e+01 3.887184657432164414e+01 1.099774333056045776e+02
2.133886412591822932e+02 3.903158661983284361e+01 3.893306028682566478e+01 1.101239044202273476e+02
2.134013189594666073e+02 3.906161996617030496e+01 3.897285908446545477e+01 1.102615593727722114e+02
2.134002175070119449e+02 3.908724110509951544e+01 3.899307325279198011e+01 1.104240829696525310e+02
2.133971716758214541e+02 3.911409175333336208e+01 3.901388788133785823e+01 1.104882654045911465e+02
2.133758998819689054e+02 3.909857940379480823e+01 3.902625172390504105e+01 1.104847493454581127e+02
2.131422448620639329e+02 3.907111271764406268e+01 3.903205624224275283e+01 1.104892215975629455e+02
2.129652327569925205e+02 3.906916549823122864e+01 3.903205624224275283e+01 1.105065383579121345e+02
2.128039292946443481e+02 3.902195574436073855e+01 3.900242259472610584e+01 1.105726034321735085e+02
2.123074733438274109e+02 3.897239967269376848e+01 3.900304620023417357e+01 1.099852828511556169e+02
2.116197600793460936e+02 3.896120769288577179e+01 3.900116136857467097e+01 1.093368480867971897e+02
2.104099268742803304e+02 3.898502507076507584e+01 3.898414099627695606e+01 1.086144583569273294e+02
2.095270657534247505e+02 3.897645874158975232e+01 3.890980045512443297e+01 1.082236118278971873e+02
2.095750289095530263e+02 3.897115702441377039e+01 3.890434052824441835e+01 1.082995636869421361e+02
2.097527973382953235e+02 3.896372197050543917e+01 3.890323991157550410e+01 1.083421216547317840e+02
2.099383581436226791e+02 3.896176938395100109e+01 3.888865873461826084e+01 1.083166189881406609e+02
2.100464920936314570e+02 3.896212670352473140e+01 3.886433610931236871e+01 1.083289345660799654e+02
2.100529452458117419e+02 3.895609923159035759e+01 3.885702369787991017e+01 1.082800410358654233e+02
2.099612205376030545e+02 3.892285806474367149e+01 3.885635180736350947e+01 1.082300809276640052e+02
2.102882782335715319e+02 3.903174002964145473e+01 3.884741428226081439e+01 1.082246058629707761e+02
2.106476499865117944e+02 3.909080276256187858e+01 3.883505202594173511e+01 1.082015342336483030e+02
2.106783013393642818e+02 3.904835276945983935e+01 3.879358483792908174e+01 1.082179067514338584e+02
2.106425971223294198e+02 3.904035689362374484e+01 3.877926100504755169e+01 1.081975590909303548e+02
2.106899173915068673e+02 3.907494422885567786e+01 3.879385518065459593e+01 1.081437321578187181e+02
2.107675834430901602e+02 3.911779252030353149e+01 3.875814104439997010e+01 1.080990382386234074e+02
2.108231318599549979e+02 3.909357449583645661e+01 3.863652268951751267e+01 1.079836659347238310e+02
2.108832583645273075e+02 3.903990456317119140e+01 3.851766677795529858e+01 1.078360236173826223e+02
2.109387153787563136e+02 3.901240153500142327e+01 3.840259838835910244e+01 1.077141023101836055e+02
2.108818968068145523e+02 3.901957191677249881e+01 3.835818844441954667e+01 1.077342405178380034e+02
2.109398480629963331e+02 3.905088490104734689e+01 3.834493826018763230e+01 1.077851476007495677e+02
2.108071083413459519e+02 3.907236122454739302e+01 3.817607414831442725e+01 1.078330915458177088e+02
2.112355369080684966e+02 3.909153655897289781e+01 3.795138790739544277e+01 1.078338748701076639e+02
2.113574359307946793e+02 3.911118277638994556e+01 3.776692868128942138e+01 1.078368172923424027e+02
2.113251074132933525e+02 3.917546433413199480e+01 3.774049988775455233e+01 1.078071407574750395e+02
2.113039325200550422e+02 3.922218839018098180e+01 3.760762310087678628e+01 1.078345197482792912e+02
2.112788767502325982e+02 3.915798353450010438e+01 3.739179398661691778e+01 1.079168341018615251e+02
2.112387265745558693e+02 3.897832681933445542e+01 3.714497876937878829e+01 1.080936105486753718e+02
2.112060737707132603e+02 3.880053791424607823e+01 3.701074907560776239e+01 1.083935014404247710e+02
2.113144135548731981e+02 3.873263043905204484e+01 3.699854087200738917e+01 1.084654801954768004e+02
2.113546841327155619e+02 3.858623407773183800e+01 3.695863392845576101e+01 1.084445985480545005e+02
2.112363254102853602e+02 3.843747541252131583e+01 3.689461440939045644e+01 1.083838638775257692e+02
2.112094800979349429e+02 3.839192521813470194e+01 3.678233690370422693e+01 1.083581860092199207e+02
2.111115457478343842e+02 3.827497219831144548e+01 3.664853162375815998e+01 1.083396070130496582e+02
2.111207983066565816e+02 3.825367249343319287e+01 3.659468340753342375e+01 1.082519050477267086e+02
2.110551315633902334e+02 3.820978747679072995e+01 3.652420315048094324e+01 1.082163145847336523e+02
2.107452575220613653e+02 3.801546366249986164e+01 3.639091923347914559e+01 1.083120597479125138e+02
2.107020886712800518e+02 3.786237143948478945e+01 3.632923865452731604e+01 1.083645318208654942e+02
2.105677666596669724e+02 3.778498977223866717e+01 3.628429996923740930e+01 1.082969549395643725e+02
2.099788523562312719e+02 3.770498966425417109e+01 3.626056772111547843e+01 1.083332510858756166e+02
2.096033029950624496e+02 3.764166933645275037e+01 3.616543363071431116e+01 1.089283035327153470e+02
2.086810144599646151e+02 3.764941129006110287e+01 3.609181512001858039e+01 1.093042400624759267e+02
2.078780883653685407e+02 3.745505809626848048e+01 3.602714694584628319e+01 1.093469396512862488e+02
2.071455450624993944e+02 3.702270354014565612e+01 3.598106933065777469e+01 1.093363893961903557e+02
2.061399356477050162e+02 3.686027158854792418e+01 3.595035964350845603e+01 1.093019030583123055e+02
2.059460663689403077e+02 3.686076297177682193e+01 3.593546343234773843e+01 1.094938365384190604e+02
2.063407599638034924e+02 3.690618203004540732e+01 3.593160483943907479e+01 1.097523851681078497e+02
2.062902369595807386e+02 3.691140741082870136e+01 3.594194738321230176e+01 1.099830699563438827e+02
2.058241513526534163e+02 3.690418434281104965e+01 3.595848839227813443e+01 1.102008996113705308e+02
2.053503713423474153e+02 3.689665478795487275e+01 3.596561160355265230e+01 1.103462873464955720e+02
2.053612771757129281e+02 3.684928701374713711e+01 3.597331510686221634e+01 1.103807251732325767e+02
2.045509523596504380e+02 3.683877420230184896e+01 3.597331510686221634e+01 1.101797655105299611e+02
2.042165028533198665e+02 3.685769233988359161e+01 3.594358382267412821e+01 1.097097012809503980e+02
2.048196899129573296e+02 3.688978606147660599e+01 3.592607738478557167e+01 1.092479764816815049e+02
2.052698690934448678e+02 3.699411409951832042e+01 3.593595512822222560e+01 1.087131522523779239e+02
2.054083118844999376e+02 3.695341962247670864e+01 3.586755542405420982e+01 1.085634816165271843e+02
2.054169601586976910e+02 3.678634550638111733e+01 3.571874422565272766e+01 1.085805607626369920e+02
2.055152493632528490e+02 3.662059628325996385e+01 3.560065829191365339e+01 1.083959699007703250e+02
2.055204596628763909e+02 3.660752830308969408e+01 3.560619216397058295e+01 1.079659837727082703e+02
2.054508445834185579e+02 3.663202591005370579e+01 3.556635881191101589e+01 1.077266361870113514e+02
2.053726861392234753e+02 3.665626537271419494e+01 3.554963534802573122e+01 1.076593628954244934e+02
2.052754285501311529e+02 3.670926769860955829e+01 3.554011554648634785e+01 1.076862716945636151e+02
2.052596759522922127e+02 3.678870637040910196e+01 3.557277482707246463e+01 1.077256288030941960e+02
2.052617092924055555e+02 3.679145643336478599e+01 3.554825161970136094e+01 1.078980854290846025e+02
2.052943626289820997e+02 3.677609478680653865e+01 3.546580396857795847e+01 1.081843729957737850e+02
2.053431248891474468e+02 3.668169874703431788e+01 3.546461062097819905e+01 1.083909093785177049e+02
2.052400456110844118e+02 3.656355782298606982e+01 3.545839156106210055e+01 1.084352536340251874e+02
2.053038895550691052e+02 3.660228158036297685e+01 3.546744699830536263e+01 1.084410255872227680e+02
2.053062723134390808e+02 3.670892770223857582e+01 3.548254854344033760e+01 1.087234904333406007e+02
2.053208546213462569e+02 3.678800481073750461e+01 3.548478633242139324e+01 1.090918367214616040e+02
2.053274007141764912e+02 3.689616550602757883e+01 3.551377074118714461e+01 1.092361059023161971e+02
2.053459459371915727e+02 3.711917400421035751e+01 3.549230010604553343e+01 1.092699454350037911e+02
2.057590243737562048e+02 3.735875035929573329e+01 3.539864537207038353e+01 1.092114376464695482e+02
2.063927833390499131e+02 3.742884286369064029e+01 3.523742392311900318e+01 1.092007723875402547e+02
2.065094629329126121e+02 3.742835893857551355e+01 3.512833748553435953e+01 1.092057970659465838e+02
2.065506168880645532e+02 3.735028074050911329e+01 3.500161925993708678e+01 1.092094997365249469e+02
2.065581325807338260e+02 3.725137534438399456e+01 3.486370101434440016e+01 1.092077902164281369e+02
2.065516074186787989e+02 3.725137534438399456e+01 3.474133312032798671e+01 1.091981969397329806e+02
2.066003577597096239e+02 3.703917203297313421e+01 3.458686196256605427e+01 1.093113458611778412e+02
2.070052738401608963e+02 3.682290789650981822e+01 3.443169780678260139e+01 1.093810947689866566e+02
2.070470425426067322e+02 3.667682232448051138e+01 3.427865869630254281e+01 1.093423010067407830e+02
2.070034962391698627e+02 3.657635535016456885e+01 3.415192981161676755e+01 1.093347153374842264e+02
2.069992318730676004e+02 3.654789240701637709e+01 3.406610291444558669e+01 1.093759041676397175e+02
2.069771120197593177e+02 3.654983227733763584e+01 3.403209296087442226e+01 1.094617209870587970e+02
2.069524299834143335e+02 3.641124520412403598e+01 3.401508871688560021e+01 1.095051537023199160e+02
2.072644886748330748e+02 3.637238688503746431e+01 3.394511266290919593e+01 1.096043463780917193e+02
2.078379894437973405e+02 3.645158385559552272e+01 3.385932022852198742e+01 1.097888911770010338e+02
2.084756324178919726e+02 3.651797293290221802e+01 3.380941229565515727e+01 1.099391790992730762e+02
2.090647785889340469e+02 3.656262620228720550e+01 3.379503601089364651e+01 1.100634282812508218e+02
2.092074746619728671e+02 3.653476106698266079e+01 3.379138106348419512e+01 1.101519407812471343e+02
2.092556490077150215e+02 3.646496757283871659e+01 3.373964457337388723e+01 1.101615524122430685e+02
2.093489764427808666e+02 3.650328671861634433e+01 3.370610920438011249e+01 1.101707930755184748e+02
2.093853980181999646e+02 3.652162172569621390e+01 3.370709388033323251e+01 1.102788955094402610e+02
2.094485332639978594e+02 3.652499345244996221e+01 3.367845984034302376e+01 1.105105152313662842e+02
2.096973281490253385e+02 3.655992917327446889e+01 3.354240138000852056e+01 1.107211759270798836e+02
2.102926320764472621e+02 3.668170519093742143e+01 3.347909271556798672e+01 1.108808160564398122e+02
2.109114388458815199e+02 3.678142187909785576e+01 3.346033417552188638e+01 1.110287146256410580e+02
2.113790501767855403e+02 3.684409214959948997e+01 3.344314424598258029e+01 1.111297304021837391e+02
2.116971922630057463e+02 3.684024329608649140e+01 3.342447061566716116e+01 1.111705922388142511e+02
2.116103433030626206e+02 3.684095862426553936e+01 3.340667493447376302e+01 1.111797037283725871e+02
2.113215820668585252e+02 3.683287315548678720e+01 3.338711157703819055e+01 1.111774944629024588e+02
2.112754931913306962e+02 3.680433255702619988e+01 3.331719402737267899e+01 1.111680054454909623e+02
2.112720696998067922e+02 3.671020355643435096e+01 3.326647278112901773e+01 1.111198360841515438e+02
2.112606209780706479e+02 3.670094909047328713e+01 3.325876825526763270e+01 1.109693364036902494e+02
2.112465585235414380e+02 3.682423389501600042e+01 3.326220717537544402e+01 1.108160057469830093e+02
2.110510934651607613e+02 3.708130799178356796e+01 3.326891005995835116e+01 1.106465168153462741e+02
2.108869065808496828e+02 3.718585252030013066e+01 3.323034006111881666e+01 1.105236562006314074e+02
2.110925764759149956e+02 3.721031077369342910e+01 3.320556828391283233e+01 1.105236562006314074e+02
2.114111483267616620e+02 3.725489946742815306e+01 3.323505213863216312e+01 1.105057241302701527e+02
2.116413026420883341e+02 3.726691004856961342e+01 3.322386695280363966e+01 1.105644136905211639e+02
2.116935552123399589e+02 3.720028028758446936e+01 3.318945809647392053e+01 1.106690136219801843e+02
2.117299079772152197e+02 3.718218302836515221e+01 3.318173892636728795e+01 1.108740612214689065e+02
2.117525135606187519e+02 3.720769674688529705e+01 3.318100591509543307e+01 1.109696646389845682e+02
2.116826131812436529e+02 3.729862736538051138e+01 3.316764498992350951e+01 1.109219673310718406e+02
2.115595794041008162e+02 3.743261449852047917e+01 3.312921029812811469e+01 1.108854967062661814e+02
2.112904025781579094e+02 3.742578644065495297e+01 3.299981236700594422e+01 1.108752789779370431e+02
2.110189619385898538e+02 3.730951826698979801e+01 3.271478493552416467e+01 1.109535442392987932e+02
2.102905541407888279e+02 3.725049274351744089e+01 3.242807419902695898e+01 1.108937534245972216e+02
2.095368699394930729e+02 3.723421356308620034e+01 3.231094734757243003e+01 1.107786044223734621e+02
2.088629353639367991e+02 3.724445575681718168e+01 3.230299496606464515e+01 1.106872601594632499e+02
2.087869592231278091e+02 3.724572664501050667e+01 3.231630854317364765e+01 1.104729285502201037e+02
2.087293724036941285e+02 3.724714909584596256e+01 3.234270205807791854e+01 1.103369634408253717e+02
2.087665416910478768e+02 3.724203400721885515e+01 3.235079821360823615e+01 1.103364835853582662e+02
2.087233566959865527e+02 3.724124951906839698e+01 3.234559629404902381e+01 1.101701216672138344e+02
2.084989826911393607e+02 3.723341111396472769e+01 3.234559629404902381e+01 1.098091455261447464e+02
2.082943653410721083e+02 3.722023915857489840e+01 3.230592397096231849e+01 1.094503237750443390e+02
2.076761412797339688e+02 3.721842692764135307e+01 3.226995859584572912e+01 1.090279401369913472e+02
2.065152185095326161e+02 3.721795068164705356e+01 3.222064216519586921e+01 1.085504642646084505e+02
2.058379505417793780e+02 3.718852044428287940e+01 3.213489357221519782e+01 1.083258646965197443e+02
2.054715801526819803e+02 3.716132208387521985e+01 3.204404092023347772e+01 1.083252941966096756e+02
2.048071592226209816e+02 3.716384200781065772e+01 3.200281593762645116e+01 1.084392029109185813e+02
2.044761676598033944e+02 3.716706972049557578e+01 3.193352387347186294e+01 1.085188878181522085e+02
2.046811795120401882e+02 3.709499734584407094e+01 3.171837509989434167e+01 1.085616750912679862e+02
2.048598642839539252e+02 3.689009738030219410e+01 3.161278818607427965e+01 1.085963582736642081e+02
2.050012680098345470e+02 3.674693929506027956e+01 3.161573251053338396e+01 1.089473394284689931e+02
2.051503916546103028e+02 3.663085982549202413e+01 3.158122724052372021e+01 1.097899863720823959e+02
2.052803530239560246e+02 3.662263044232139464e+01 3.152714317691340540e+01 1.107733875015506726e+02
2.059319373541656262e+02 3.667547926678230397e+01 3.140952395082736004e+01 1.114066965066075738e+02
2.070676567386611282e+02 3.665743416563928747e+01 3.129353371828751307e+01 1.114590728144133749e+02
2.076348675459880440e+02 3.648457129154978418e+01 3.120193832084150642e+01 1.113487403877057886e+02
2.076454825861617053e+02 3.637032425235596378e+01 3.118689245079729844e+01 1.112391478455106153e+02
2.078852834984718072e+02 3.643595646548674694e+01 3.117427175504822756e+01 1.113586308694961531e+02
2.091035038521353897e+02 3.642817210797405636e+01 3.112521121563029070e+01 1.116806763095957535e+02
2.100315062899849750e+02 3.632052799811027910e+01 3.114393903310237377e+01 1.120472299978690529e+02
2.102688978789778673e+02 3.618148132928656224e+01 3.113337763522611823e+01 1.123088635590651023e+02
2.100494829663715848e+02 3.606168356998202995e+01 3.117238971810787618e+01 1.123343597001174174e+02
2.101720578822028358e+02 3.609856467296419424e+01 3.134917895858833603e+01 1.122087722657875162e+02
2.102289278268812041e+02 3.614413553807651169e+01 3.160298730591141236e+01 1.121621210363315981e+02
2.103888755501108392e+02 3.614320894121298977e+01 3.169943498956405392e+01 1.121832178472729566e+02
2.098921266385188176e+02 3.620437330537355081e+01 3.168410134211790918e+01 1.121617151685697422e+02
2.088224878580849122e+02 3.634919225853826674e+01 3.169816789812303526e+01 1.119600121565226516e+02
2.075771290986558029e+02 3.642837951608853331e+01 3.175164804947292296e+01 1.117716817347848490e+02
2.063307221061372161e+02 3.645014981708825275e+01 3.180092851879638971e+01 1.115499453506904928e+02
2.059446091978132358e+02 3.648181186191522585e+01 3.183617070845043528e+01 1.113123577288495341e+02
2.057331919376161977e+02 3.651591335342504152e+01 3.185738385143383766e+01 1.111689161136122976e+02
2.055732926740242306e+02 3.653454131870521593e+01 3.187481837340563473e+01 1.111170174027754314e+02
2.053213268163831628e+02 3.653690381675553311e+01 3.187377709305248885e+01 1.111873969642634563e+02
2.047483025806075432e+02 3.653190724076938523e+01 3.187485052416085551e+01 1.113091459705896398e+02
2.044935293471165494e+02 3.652460912327712350e+01 3.189454156838748844e+01 1.113728183585595559e+02
2.045670592955767404e+02 3.653366559118012447e+01 3.190966401981690481e+01 1.113728183585595559e+02
2.047959233599146103e+02 3.652745110162371844e+01 3.190289600549764160e+01 1.114057081123256552e+02
2.050918780703907487e+02 3.657524627879961798e+01 3.192245972129336806e+01 1.114189130892149393e+02
2.051779101151973919e+02 3.657379769591219087e+01 3.192156394316539902e+01 1.114192341672150519e+02
2.051592121880955517e+02 3.656026245175917921e+01 3.191722009852357900e+01 1.114189133182604365e+02
2.053530057302303646e+02 3.662631964596195644e+01 3.194120911326929502e+01 1.114332497130398707e+02
2.056787726199279689e+02 3.662497376501693225e+01 3.196085927408081062e+01 1.114393078555110463e+02
2.058460368023636136e+02 3.681246396074992333e+01 3.196375111055643004e+01 1.114447428885814873e+02
2.058179536989910901e+02 3.699900407355372778e+01 3.197039637817456637e+01 1.114362554102061580e+02
2.057557085478797489e+02 3.717811237284887227e+01 3.199055718079316790e+01 1.114268063013356169e+02
2.058289215500096816e+02 3.731158853879285431e+01 3.201037094345514333e+01 1.114284977000439625e+02
2.059164998926507337e+02 3.740373028288549051e+01 3.203989708000943892e+01 1.114232925231615781e+02
2.059778597656554950e+02 3.743782063646572311e+01 3.207601941291340353e+01 1.113836330713301095e+02
2.061446881489795828e+02 3.750254143256843520e+01 3.207805171043898440e+01 1.113538214428615873e+02
2.061742546741470221e+02 3.759734126249060182e+01 3.209781146336300850e+01 1.113667084169922390e+02
2.061385479895500623e+02 3.763324769803308101e+01 3.213322906054723660e+01 1.115072569312361139e+02
2.061393544514002940e+02 3.761094963165441385e+01 3.213322906054723660e+01 1.115068452229818803e+02
2.061377049606404341e+02 3.761094963165441385e+01 3.211929257156199213e+01 1.115673625145904282e+02
2.060969647521283719e+02 3.765277688681378976e+01 3.211434446750544680e+01 1.115946237149832569e+02
2.060004344384740591e+02 3.766890429883573432e+01 3.211448755091068819e+01 1.116601796645908280e+02
2.056100055679198988e+02 3.762014064595602036e+01 3.213225710991366668e+01 1.116887656596163794e+02
2.051894921852482696e+02 3.756623859346996852e+01 3.213358964226681991e+01 1.116941184944341785e+02
2.048909285703983016e+02 3.754390072907776243e+01 3.207038611955891838e+01 1.118329351886794143e+02
2.046216333334284627e+02 3.753037062693154269e+01 3.190908670735652919e+01 1.121939058946698680e+02
2.039144798233809865e+02 3.754316849612161633e+01 3.183259615578970170e+01 1.125378300631186477e+02
2.026561712932523562e+02 3.755585857654584458e+01 3.180057350831266305e+01 1.125816644098349855e+02
2.013884671177573864e+02 3.761355824107639023e+01 3.181627572576019247e+01 1.125483643114462922e+02
2.008071037768336566e+02 3.761815578726375264e+01 3.181202973369661180e+01 1.125575192119805479e+02
2.008227789252007369e+02 3.759167820012179817e+01 3.180767093041546900e+01 1.126628914107126889e+02
2.008679780732609572e+02 3.753333769945743370e+01 3.179041379689162028e+01 1.127286603780158458e+02
2.008446351945703441e+02 3.748895339423128803e+01 3.180558575749859074e+01 1.128863043200932594e+02
2.007830551516737216e+02 3.745852366882842688e+01 3.156033779695010111e+01 1.131514290992769816e+02
2.005963166023744577e+02 3.742693551167188559e+01 3.043352919031240944e+01 1.132067690223897642e+02
2.003369790508982646e+02 3.738927447537389526e+01 3.001116508397495863e+01 1.129117931581788952e+02
2.004896429465623271e+02 3.738299858895099703e+01 2.999760480734416745e+01 1.125476791236290808e+02
2.006676611156866272e+02 3.738060462692980224e+01 2.988805056904176993e+01 1.125036041433134528e+02
2.007828667193494709e+02 3.741246252442509501e+01 2.944420182680451603e+01 1.124912481538395497e+02
2.009565795490161406e+02 3.748687364409279610e+01 2.903461080189638821e+01 1.124954522883275274e+02
2.009525291168042429e+02 3.749636192745698082e+01 2.891831721690594037e+01 1.124337016405462606e+02
2.013375205550124178e+02 3.746266626613993367e+01 2.893683682121455902e+01 1.124389158665067185e+02
2.018580258281549220e+02 3.749777303016156793e+01 2.894622365866743863e+01 1.124691820682538861e+02
2.019048868354603599e+02 3.753490626330170699e+01 2.894402714097674689e+01 1.124565346175818235e+02
2.017286727285936934e+02 3.757862582880742508e+01 2.894545905280478948e+01 1.124218803123694101e+02
2.017332429383914416e+02 3.761612121535365816e+01 2.895839357591506058e+01 1.124076700069085319e+02
2.016967172306977716e+02 3.761509014400354545e+01 2.895577442545094016e+01 1.124629850343453086e+02
2.013734400243489517e+02 3.760023604085723292e+01 2.895683273180267392e+01 1.124553446520382636e+02
2.010356152368034088e+02 3.759009078691057226e+01 2.895593111916103979e+01 1.123759129460670749e+02
2.008931836375740545e+02 3.759138748359140436e+01 2.893643754883449049e+01 1.123763903477151445e+02
2.010127554560656620e+02 3.759457848903454646e+01 2.889799638067661292e+01 1.123116412402949038e+02
2.010109574467025197e+02 3.758577765389694747e+01 2.886592597401993388e+01 1.119907603422504536e+02
2.010258403649641537e+02 3.756060112593397804e+01 2.883585944093913511e+01 1.110636347306446083e+02
2.010017957791423555e+02 3.755150097854296121e+01 2.883840895364372514e+01 1.105163650617502213e+02
2.009027703025521987e+02 3.754321760577862932e+01 2.883840895364372514e+01 1.103808325887940498e+02
2.006672950992264930e+02 3.746560590098843591e+01 2.882919112180566401e+01 1.103808325887940498e+02
2.003059771290913034e+02 3.741894799636737901e+01 2.883581845583021774e+01 1.104196557196017494e+02
1.999305154038273713e+02 3.740817391081143484e+01 2.883696943469612606e+01 1.103810045185102382e+02
1.998774084964082363e+02 3.740817391081143484e+01 2.883781286466778226e+01 1.103342152038464832e+02
1.998584040665792259e+02 3.741597570425650332e+01 2.883263324945535544e+01 1.102504546126774159e+02
1.997541224707015886e+02 3.743599947619287605e+01 2.883537593612399164e+01 1.100319452847916040e+02
1.997461906020739377e+02 3.744728804610795692e+01 2.880849185253540412e+01 1.098703811169418003e+02
1.997322245148239688e+02 3.741479529715724084e+01 2.872473543581557109e+01 1.098129483464588532e+02
1.996924598357185232e+02 3.744258464059578984e+01 2.869972147212579827e+01 1.097579615185251072e+02
1.997326653405497723e+02 3.745427655201534378e+01 2.868422630955205932e+01 1.097644601450853941e+02
1.997455211313636880e+02 3.745398444431307894e+01 2.866520791373400456e+01 1.097852653759239274e+02
1.997827485646347441e+02 3.746205097546288698e+01 2.863521722246224854e+01 1.097838283275305855e+02
1.996452920517788527e+02 3.748443761609404845e+01 2.859488706355733711e+01 1.097820472546492425e+02
1.996680785344519506e+02 3.751326458425312893e+01 2.855266375415083147e+01 1.097825734387538148e+02
1.996832348737371206e+02 3.753718774382074486e+01 2.857677255565433327e+01 1.097800979979311791e+02
1.997443178166529663e+02 3.750496318917688399e+01 2.855698427946477835e+01 1.098000347201313076e+02
1.997291491836884347e+02 3.756304493774229059e+01 2.855847958308702417e+01 1.098659972405568368e+02
1.999800793860229930e+02 3.770639304001616665e+01 2.835633669319079075e+01 1.099093092656943185e+02
2.005683466612816801e+02 3.779098141066877758e+01 2.790396511067197949e+01 1.099073238947949847e+02
2.007972900355979959e+02 3.786355075629921174e+01 2.783442329665910364e+01 1.099054956377009660e+02
2.008213954638301573e+02 3.791016429729868520e+01 2.785740098605035087e+01 1.098799602703879827e+02
2.007862832208417103e+02 3.786873827290148142e+01 2.766735217576121997e+01 1.096320180113244760e+02
2.008423906590440424e+02 3.783606432433012401e+01 2.736709847275737317e+01 1.095420648611088268e+02
2.009066417579072095e+02 3.785334019301572539e+01 2.717064889504111136e+01 1.095396515155221806e+02
2.008636168449629054e+02 3.784099944462592902e+01 2.710059490006813121e+01 1.094285320405150941e+02
2.008163810430814067e+02 3.786246601629173369e+01 2.714242318617847260e+01 1.090388170718821215e+02
2.008131134822625654e+02 3.787850414973528501e+01 2.730286054935633899e+01 1.085453730441270608e+02
2.006715615727352144e+02 3.780598747546275007e+01 2.747132261136327003e+01 1.082076788489401622e+02
2.006808958920605903e+02 3.775740086581057398e+01 2.765159231757908742e+01 1.081261518297124979e+02
2.005283812931228340e+02 3.771709436716345465e+01 2.775803323179794191e+01 1.081229419079751608e+02
2.005639270119132505e+02 3.759028973385076711e+01 2.777701521361859349e+01 1.082123993260570671e+02
2.007003546704391397e+02 3.746085024175034306e+01 2.775803323179793836e+01 1.084088527150590693e+02
2.008705317303662241e+02 3.736221973038423982e+01 2.771467306568126787e+01 1.084425747986864508e+02
2.007595626774477182e+02 3.727376432302189357e+01 2.770422670889044525e+01 1.084450471868987762e+02
2.008710413116834843e+02 3.717276498416790531e+01 2.768775029534900156e+01 1.085058503934636036e+02
2.014206803583983003e+02 3.707847792248462326e+01 2.764683914695491396e+01 1.085216069047175580e+02
2.017239352204890395e+02 3.698201530521080826e+01 2.764123274996248369e+01 1.084976476643712289e+02
2.018221516524884862e+02 3.698999619187390664e+01 2.764582575828760724e+01 1.084553926761691258e+02
2.017375964088996056e+02 3.700883702804209463e+01 2.764776133175340433e+01 1.084784141809268334e+02
2.016393115898783890e+02 3.699922490046036216e+01 2.764925708545527172e+01 1.085109813500706224e+02
2.015367853451078020e+02 3.696887152882606387e+01 2.773525093770738792e+01 1.085578179493706870e+02
2.015734955316300159e+02 3.687495728550990037e+01 2.776932302987594525e+01 1.085894317782753120e+02
2.019638949120363520e+02 3.669081569414222344e+01 2.776783046796415633e+01 1.086044637661302943e+02
2.020495598095676542e+02 3.667544290895721559e+01 2.769217263736449297e+01 1.086408558525844938e+02
2.019616137686566901e+02 3.680798350695375376e+01 2.772296888750551602e+01 1.086712508710347720e+02
2.019700914195962298e+02 3.683703121201335762e+01 2.772790513143029756e+01 1.086839328119634018e+02
2.019484329665374105e+02 3.682699620995689571e+01 2.773462398550949715e+01 1.086940513547178426e+02
2.017612531147644859e+02 3.682168213043568272e+01 2.772182412644591309e+01 1.086952084101013867e+02
2.014598867249757745e+02 3.681464594688976177e+01 2.769316970983275894e+01 1.086992607403658582e+02
2.009439742496402062e+02 3.679149137479362253e+01 2.767347022578842797e+01 1.086995898517041610e+02
2.006343194870709681e+02 3.679667333996621181e+01 2.763695326365767357e+01 1.086971156129209675e+02
2.006478257685342044e+02 3.674399882912646120e+01 2.758264268299175725e+01 1.086841753493520741e+02
2.006974237563603367e+02 3.669573416708696101e+01 2.753964286946362350e+01 1.086817233952825603e+02
2.007161423165562724e+02 3.667542381824891606e+01 2.753024984589858093e+01 1.086817589655628780e+02
2.004096756607326881e+02 3.663104932496720068e+01 2.758293780904417503e+01 1.086940638965871671e+02
1.998616024153715500e+02 3.656440857639451991e+01 2.760227913665099209e+01 1.087903257312066359e+02
2.000106373132190640e+02 3.659902149413532868e+01 2.759286370816916190e+01 1.092596774271065385e+02
2.009583200209438019e+02 3.678697220604299645e+01 2.762497215089272729e+01 1.102905363631079751e+02
2.021319173887193301e+02 3.699131957466300236e+01 2.763161015535646925e+01 1.112245283696393443e+02
2.032955406240876073e+02 3.730796075810335566e+01 2.755308587177847812e+01 1.122361892720081755e+02
2.043468319677113243e+02 3.749590650201938757e+01 2.755790499906694535e+01 1.127680838651701265e+02
2.046647660053876052e+02 3.749412534866646496e+01 2.759005412567359983e+01 1.128083723437022883e+02
2.048088913246689344e+02 3.754119759457396555e+01 2.759812867745925757e+01 1.128087582311854078e+02
2.046342893281574504e+02 3.756599773103570072e+01 2.756985740002292573e+01 1.130051590775485124e+02
2.050933825866647737e+02 3.760379665558846796e+01 2.756784770593451483e+01 1.137064814530613148e+02
2.063706202210965159e+02 3.766859356911068346e+01 2.758056800172176892e+01 1.144779641009659343e+02
2.076383733938407659e+02 3.775963565830819135e+01 2.759207957544336409e+01 1.149352177777060149e+02
2.081525528703408554e+02 3.785192891229604584e+01 2.760706603349220245e+01 1.151529457170565678e+02
2.080585676275794356e+02 3.810403591897906495e+01 2.759638518244008409e+01 1.152290143423176261e+02
2.087923998809344823e+02 3.845873669248007332e+01 2.752025602383812952e+01 1.152731213712692551e+02
2.097013631392033801e+02 3.859153724062889523e+01 2.744353745014659651e+01 1.153292888387942838e+02
2.098098380458839358e+02 3.857532991306118930e+01 2.740590927989068959e+01 1.153826300145536408e+02
2.098989275628630935e+02 3.861492542435087927e+01 2.740490929628482775e+01 1.154413151842760925e+02
2.100108590888576998e+02 3.880394137002296873e+01 2.740131918754275375e+01 1.152327851457013708e+02
2.101085831850760997e+02 3.912011731451623575e+01 2.738454222253128734e+01 1.151560347721098623e+02
2.100650292667488372e+02 3.944787427996823936e+01 2.732317810683081305e+01 1.151447310924619529e+02
2.100467423257024677e+02 3.974772545921983635e+01 2.720545938920346174e+01 1.149178472275827261e+02
2.100572351470904380e+02 4.018532775870873053e+01 2.714047014658365597e+01 1.146215452133761943e+02
2.100711119445985275e+02 4.056660370610509858e+01 2.708337929169103475e+01 1.144159077737388088e+02
2.100696403177766172e+02 4.066740562344140386e+01 2.703046146734455490e+01 1.143514973969093802e+02
2.102246201472131304e+02 4.070992261068767704e+01 2.703689757826512619e+01 1.145217447006842661e+02
2.108149167740272674e+02 4.080517153803154429e+01 2.704658202615625484e+01 1.150764251636075670e+02
2.114115822845097625e+02 4.082436381355517341e+01 2.701273490962362089e+01 1.154214890180999618e+02
2.115157107319454894e+02 4.082034242982510364e+01 2.702558651829037828e+01 1.155879646851783633e+02
2.116517200970501165e+02 4.082555273855064115e+01 2.701195259172499519e+01 1.155605001401807073e+02
2.116059828417902793e+02 4.085766521288483233e+01 2.712715383702460414e+01 1.154853552068920948e+02
2.115539425622695546e+02 4.086168659899939115e+01 2.714193509272319105e+01 1.155705381042909750e+02
2.115537010256262249e+02 4.090397490230233757e+01 2.713467476307019766e+01 1.154301699173806668e+02
2.115543620142114776e+02 4.091971896589930680e+01 2.705111774580855766e+01 1.153464678499029930e+02
2.115130747524607386e+02 4.090690750514937690e+01 2.698972034715437118e+01 1.153812231740013488e+02
2.114198813452510421e+02 4.089996142045669814e+01 2.700225480839699443e+01 1.154520727667634361e+02
2.115549969781854145e+02 4.091931543164971430e+01 2.700458080729265120e+01 1.154962510332205738e+02
2.116013110981121486e+02 4.092243288085618502e+01 2.694862874317724177e+01 1.154860475020050785e+02
2.111182820885960894e+02 4.092472503489196356e+01 2.696638303847215212e+01 1.149806619015361804e+02
2.102232126232496512e+02 4.095512727959930999e+01 2.698599261723753528e+01 1.139993974793815994e+02
2.098620874518311439e+02 4.105847111987382192e+01 2.698979076794777399e+01 1.136779062889913661e+02
2.097424288179194605e+02 4.115167836360399178e+01 2.697626527630536941e+01 1.136311706747552961e+02
2.092292584664965034e+02 4.118471638243381960e+01 2.693431027551288182e+01 1.136103566697245952e+02
2.084415905313524036e+02 4.115534603598313623e+01 2.694270772913514733e+01 1.135965037413066767e+02
2.083544646050090705e+02 4.108491817274938285e+01 2.695581316632089042e+01 1.135307594570242600e+02
2.082897935762575230e+02 4.110066059527729010e+01 2.693360515522566700e+01 1.129772247932389035e+02
2.076355208109632997e+02 4.105870014286269765e+01 2.681961005416743049e+01 1.122839398952882561e+02
2.066606535207898787e+02 4.097335629285832681e+01 2.671369313475018004e+01 1.116260788545193492e+02
2.054001502473646212e+02 4.094670485181332964e+01 2.669202708708349192e+01 1.109979577784896634e+02
2.041200524966617706e+02 4.095739647106709924e+01 2.668878668687654709e+01 1.106396825917749567e+02
2.033199297010501141e+02 4.089659468832964961e+01 2.669097001342586850e+01 1.104131989755242529e+02
2.032265089520556671e+02 4.094393675952741063e+01 2.665987567745954578e+01 1.103200088303509574e+02
2.031272763526355334e+02 4.106633446618020145e+01 2.658560094670795948e+01 1.102080302761193877e+02
2.028459763545729686e+02 4.127775697307424707e+01 2.653688178700728884e+01 1.101054593478242509e+02
2.024789327136035126e+02 4.175037892149219232e+01 2.655491137280633396e+01 1.100991010821707192e+02
2.024979030805997695e+02 4.199218985964152040e+01 2.664981129121929015e+01 1.101389077612238623e+02
2.024942110008085479e+02 4.198644330838443040e+01 2.678856445458768931e+01 1.101261641081811433e+02
2.025301685498729967e+02 4.198585114862918033e+01 2.687497521668809242e+01 1.101042882728099954e+02
2.025414836680129724e+02 4.198585114862918033e+01 2.691705954404379497e+01 1.101042027695978049e+02
2.024164969819405826e+02 4.197417058757500286e+01 2.691692690515763786e+01 1.101033201478595061e+02
2.020943609624968360e+02 4.197056695075943367e+01 2.694931352479314768e+01 1.101039633602504750e+02
2.018495465717967932e+02 4.195954840980591882e+01 2.702238916042767158e+01 1.101010493753596222e+02
2.017707578992554716e+02 4.192913459423546385e+01 2.693173638846182882e+01 1.101008763131128632e+02
2.017640398525960563e+02 4.196908500862883074e+01 2.685138428494141749e+01 1.100803533216624714e+02
2.017315234207087542e+02 4.199445368245882548e+01 2.686095070427699483e+01 1.100184403164398788e+02
2.014607116716307758e+02 4.202000493647653911e+01 2.698399026566676895e+01 1.099319185564503982e+02
2.013907045224281376e+02 4.216117121501148546e+01 2.736514876878251101e+01 1.098405443337236562e+02
2.014122472126259709e+02 4.230325417815410560e+01 2.793425212347019126e+01 1.097814677910410239e+02
2.014580035919148031e+02 4.235576482363228479e+01 2.834843057838650182e+01 1.097782721229572047e+02
2.014957269185626103e+02 4.238883123758166960e+01 2.847273271215109247e+01 1.097888810491999578e+02
2.016192290889932792e+02 4.241072374492304675e+01 2.845067349251329958e+01 1.098069621892682051e+02
2.014425710917132619e+02 4.241062205982733246e+01 2.858726374764816924e+01 1.098053197361374487e+02
2.007428617531391808e+02 4.241449620787896890e+01 2.866890553225914928e+01 1.098112530124700470e+02
2.003442610089940956e+02 4.242057764098511541e+01 2.866890553225915284e+01 1.097806505588699366e+02
2.001480176710225294e+02 4.245220784939434822e+01 2.866890553225915284e+01 1.097660330640678836e+02
2.000271456658819318e+02 4.250185953494481339e+01 2.861394612872540222e+01 1.097741203335074687e+02
2.000788611344035814e+02 4.254274043932970528e+01 2.856243320898272842e+01 1.097564463346399890e+02
2.001093327499743566e+02 4.255920694038888996e+01 2.853781621809207891e+01 1.091806395021054499e+02
2.001072763675523163e+02 4.256334399059257123e+01 2.837972642464333717e+01 1.088866130620076547e+02
2.000333433746482967e+02 4.258420740675482818e+01 2.826876960211744461e+01 1.089704347130696505e+02
2.000766563276184797e+02 4.265229011289834915e+01 2.826994366774718870e+01 1.093897196657073465e+02
2.001151071499599539e+02 4.269935716153322858e+01 2.825304949660477760e+01 1.097135801906432562e+02
2.001287056852163744e+02 4.270614185377608862e+01 2.820078797086349809e+01 1.097445922840029624e+02
2.001268190863981999e+02 4.264365290960479626e+01 2.802723844722486035e+01 1.096602822128202064e+02
1.996445288747977713e+02 4.259267024557370007e+01 2.792493146594274833e+01 1.095869409697252195e+02
1.993031387651482760e+02 4.256809290765615117e+01 2.792562842583134142e+01 1.096839532519169751e+02
1.993091229383139762e+02 4.253863504386155370e+01 2.792893808395871247e+01 1.097833559081796437e+02
1.995890053505952721e+02 4.251630477304966860e+01 2.793079012590942511e+01 1.097918729237978397e+02
2.002808399763690375e+02 4.253411465237653744e+01 2.793746018695327749e+01 1.098339071500632116e+02
2.007727563352158597e+02 4.254564148560358205e+01 2.794057884471256870e+01 1.098749455629537124e+02
2.006114990723112896e+02 4.256473544247842966e+01 2.793781014069641699e+01 1.098924635897386679e+02
2.005391419250615002e+02 4.257560374903503231e+01 2.794111835588546100e+01 1.101267899885492909e+02
2.004290431250919369e+02 4.257628994931544497e+01 2.794218048645451447e+01 1.105659042415670541e+02
2.001855943129773721e+02 4.259598884818670683e+01 2.795944073721074119e+01 1.105345466009399900e+02
2.000937267043621262e+02 4.259192863295633913e+01 2.796108208667181572e+01 1.103340670816681239e+02
2.001866021591853553e+02 4.255636075584368427e+01 2.795989505161990962e+01 1.101936419458432681e+02
2.008101415886158918e+02 4.247402628973986083e+01 2.795889744209523542e+01 1.100813378785373828e+02
2.011152243049738786e+02 4.246486462486580393e+01 2.795937482165149390e+01 1.100459353763783668e+02
2.012719045551066301e+02 4.257091013459988460e+01 2.793797047349000806e+01 1.100208324523226082e+02
2.017575369121063602e+02 4.266285300955441073e+01 2.792866821489344886e+01 1.098149497385884672e+02
2.030315438586821131e+02 4.273006350047757707e+01 2.792689711832661814e+01 1.097019740069523266e+02
2.041728379957529000e+02 4.274685970011730518e+01 2.792337412164940247e+01 1.096064241197965146e+02
2.048667477850906948e+02 4.275542730689106463e+01 2.792231127570924443e+01 1.092879583268991297e+02
2.048920049100011909e+02 4.276424632900923228e+01 2.792298876727918611e+01 1.090419073284305682e+02
2.048227294946533732e+02 4.277634475059215191e+01 2.791951382272978677e+01 1.085099329910186867e+02
2.047513458691784649e+02 4.277779872700533303e+01 2.791896205408788845e+01 1.081268050908532388e+02
2.047334140428473006e+02 4.277848168392038986e+01 2.791963962692927481e+01 1.081056733359634165e+02
2.047234524602395140e+02 4.277832309049579607e+01 2.791521542273316570e+01 1.080985600368264130e+02
2.047675995113483509e+02 4.279461562309187883e+01 2.791296530749822580e+01 1.080650915871634794e+02
2.048378252648664386e+02 4.281329365553234112e+01 2.791198348984893585e+01 1.080073545530829335e+02
2.051202858891337257e+02 4.278340618426937425e+01 2.792824209751841025e+01 1.080004231382236952e+02
2.063179362014848266e+02 4.275430403388075717e+01 2.800055364198357211e+01 1.080225938717545944e+02
2.075555344326909335e+02 4.266448780310754074e+01 2.794874138306767364e+01 1.082170075299104752e+02
2.087147527340603688e+02 4.267045831901557307e+01 2.780737989127345600e+01 1.088467095903624369e+02
2.092255613352249100e+02 4.254001308550392935e+01 2.786803873575604484e+01 1.093601880869299663e+02
2.095496002325940026e+02 4.241389712922143929e+01 2.813280187854739012e+01 1.094920996047143831e+02
2.097783127075817617e+02 4.242300526752175927e+01 2.819170992362115413e+01 1.094086776193218498e+02
2.097896399158928205e+02 4.239098593405809368e+01 2.818404910756436266e+01 1.093671367742401941e+02
2.097762100106681942e+02 4.244340180940784535e+01 2.821220876318618664e+01 1.093691165844454929e+02
2.097193403919628167e+02 4.252857319820223125e+01 2.825154885271955152e+01 1.094243341399984502e+02
2.100361493534862234e+02 4.252857319820222415e+01 2.823005805622084807e+01 1.096697151762297722e+02
2.103226559513738323e+02 4.251749912786708308e+01 2.814259785765343480e+01 1.099637349197544722e+02
2.105824200089836040e+02 4.256287622151701555e+01 2.800649740216722705e+01 1.100933999184723859e+02
2.116004301527763118e+02 4.264997063205137806e+01 2.799395913295580485e+01 1.102093465672582084e+02
2.127070452524785651e+02 4.271626850660270946e+01 2.799959496452760632e+01 1.102558441427726024e+02
2.133694397219057350e+02 4.271783367706644441e+01 2.798342004719222587e+01 1.102667722344105101e+02
2.138966688362396269e+02 4.271345450021001966e+01 2.798380250247631551e+01 1.102667722344105101e+02
2.139837090641246959e+02 4.271323237820857344e+01 2.797714348995621947e+01 1.102245902921637679e+02
2.139368752638029036e+02 4.268101094251218797e+01 2.797621030407084319e+01 1.101110259843007952e+02
2.136868512343236546e+02 4.260243935091250478e+01 2.797019480692974369e+01 1.099724486505386523e+02
2.136646320419922915e+02 4.252778930889203224e+01 2.792864661414153815e+01 1.099127214560505621e+02
2.136270425504223738e+02 4.245695033962650911e+01 2.777841059415747083e+01 1.098463271598798627e+02
2.135436683679475607e+02 4.247786601209519119e+01 2.766705077339469199e+01 1.097963361747347193e+02
2.135719692938189951e+02 4.247534550938357967e+01 2.766705077339469199e+01 1.097717001956728922e+02
2.137150295380274940e+02 4.247248875882102936e+01 2.766675773591115828e+01 1.097621343169948886e+02
2.136760140475293497e+02 4.245562361660520168e+01 2.766320160967634578e+01 1.097626605965587743e+02
2.136099024222424987e+02 4.230502639491960792e+01 2.766529429479469471e+01 1.097689306991525626e+02
2.136382785982885650e+02 4.221735494297945479e+01 2.766409456782563581e+01 1.097909235034573499e+02
2.136973951288128433e+02 4.223550175332175627e+01 2.766595059811970359e+01 1.097752459613521268e+02
2.142394694281144041e+02 4.219268163566021457e+01 2.766573551701815603e+01 1.092814483601342914e+02
2.150433074783774146e+02 4.217312054450692216e+01 2.765965249705064366e+01 1.087205856960341066e+02
2.154810926500048538e+02 4.219415447454198187e+01 2.765984402157032918e+01 1.084757007624381799e+02
2.157270144419561575e+02 4.217170315533285674e+01 2.765831387951188702e+01 1.082829079400593457e+02
2.156609419974789148e+02 4.216484447603451002e+01 2.766304685636779226e+01 1.083019421110352454e+02
2.155394378800314996e+02 4.220161953205325034e+01 2.769173632291048648e+01 1.084031744964849509e+02
2.144475935272764104e+02 4.229210347517423685e+01 2.768801147821201170e+01 1.084121997096054173e+02
2.138710381702954351e+02 4.233548612226128682e+01 2.764809194026958750e+01 1.083154663052113165e+02
2.139960941308040958e+02 4.229898038213424627e+01 2.762532906912784725e+01 1.081106125196259455e+02
2.141596909430903111e+02 4.226703137507425367e+01 2.761555340197983810e+01 1.080440126595732977e+02
2.142874584627853665e+02 4.226358166280015638e+01 2.762217033213719475e+01 1.080079555443118124e+02
2.143004277831473701e+02 4.226013166892460760e+01 2.762255778919831073e+01 1.080054064970609176e+02
2.142162770809911194e+02 4.223765704149372624e+01 2.762307448959293765e+01 1.080060622032332986e+02
2.139965731577025849e+02 4.223765704149372624e+01 2.763593563637027017e+01 1.080071403138794182e+02
2.140309998295573166e+02 4.229079979674276757e+01 2.765026079474839804e+01 1.080030617786151907e+02
2.140983593249606258e+02 4.231290513852140833e+01 2.770627275866604577e+01 1.076882336485995495e+02
2.140877011788392394e+02 4.231900117072918022e+01 2.776324069156193275e+01 1.069227515598467164e+02
2.141522876553971457e+02 4.229647337775153915e+01 2.778253027097424521e+01 1.066786494635580880e+02
2.146375329434252421e+02 4.230193772372030736e+01 2.779177617529330035e+01 1.064559673372769026e+02
2.148643294901225715e+02 4.230955363612547160e+01 2.778253027097424521e+01 1.063792530728087939e+02
2.147369007433048580e+02 4.232644538356815644e+01 2.776773018195041942e+01 1.065363884694584868e+02
2.146576149984900042e+02 4.232855962627177604e+01 2.777331104383487670e+01 1.066299615140543011e+02
2.146093397577094208e+02 4.233182524809017622e+01 2.777202105316788661e+01 1.067481934633495371e+02
2.146980362072274886e+02 4.235028686665744146e+01 2.774042602300116656e+01 1.066764779618982715e+02
2.147906180968804790e+02 4.235699969019104572e+01 2.769220428238966392e+01 1.062609995418609117e+02
2.143477281895937381e+02 4.236480936667654618e+01 2.764828204893751362e+01 1.060306354650800955e+02
2.134320445032562645e+02 4.237778992296371428e+01 2.764544939221644171e+01 1.058918459529125755e+02
2.122168900838007062e+02 4.232374094155876776e+01 2.765458692256314421e+01 1.058713572967150611e+02
2.111015886402562387e+02 4.219648996881350200e+01 2.764697845222151074e+01 1.058128112390084539e+02
2.108664962691796347e+02 4.200776136963476404e+01 2.752577838059444559e+01 1.055607433320204649e+02
2.104107275098870957e+02 4.197284303651801451e+01 2.739976164745964837e+01 1.049317183061221357e+02
2.092082793372192668e+02 4.201851819354785533e+01 2.741923218650735095e+01 1.041802150959994009e+02
2.079488273264361737e+02 4.209749698253858696e+01 2.747420872195595365e+01 1.033640067064386869e+02
2.066849719221016812e+02 4.219509830151892515e+01 2.747685089266236602e+01 1.025830956764744144e+02
2.054874423648315371e+02 4.232083686422302549e+01 2.748525939076436586e+01 1.018481430099179903e+02
2.042171141213193266e+02 4.242310766466995631e+01 2.758833289522222287e+01 1.015657626836033671e+02
2.033896084504809494e+02 4.245159907260870114e+01 2.774190278004738275e+01 1.016724102795937199e+02
2.035493911659771129e+02 4.245364885811558509e+01 2.788541541841541971e+01 1.017577561537630544e+02
2.035493911659771129e+02 4.246967250523027104e+01 2.788541541841541971e+01 1.018202801020603943e+02
2.040479722281992281e+02 4.249686468287801944e+01 2.784803323356248228e+01 1.019290022913761788e+02
2.050282287960367000e+02 4.248758129377154091e+01 2.783543516486854941e+01 1.020502285230596726e+02
2.055520082296447981e+02 4.248589216428019455e+01 2.783896929014435528e+01 1.018232514421372201e+02
2.055944634313870836e+02 4.248491366851899187e+01 2.779906644938999705e+01 1.003473783829388282e+02
2.055254816591849476e+02 4.250204652054821963e+01 2.779470660571182350e+01 9.906515502386312733e+01
2.055424587301610870e+02 4.257443800257198063e+01 2.779577433095902350e+01 9.779074469884848497e+01
2.055725938952952276e+02 4.257192321747803021e+01 2.779384906517268305e+01 9.681315738959261807e+01
2.054738534277292672e+02 4.255963033213726732e+01 2.778460385065082150e+01 9.667383370410369992e+01
2.044882194769174646e+02 4.253455818925177567e+01 2.776403666215704291e+01 9.662068499202796090e+01
2.033955151187950321e+02 4.252147982664971693e+01 2.775467610795702456e+01 9.654120433007882696e+01
2.021194678026834026e+02 4.253017123542821309e+01 2.770156536402952696e+01 9.639514005485631287e+01
2.015408399685780125e+02 4.251949423760250113e+01 2.767438377015106354e+01 9.528354650387109359e+01
2.014454939561566960e+02 4.251711467328788530e+01 2.768371654416365502e+01 9.473437123358149847e+01
2.014923347585211957e+02 4.251548492845297034e+01 2.766435806480245319e+01 9.459525930282501349e+01
2.013435762572026135e+02 4.249625816980649518e+01 2.764816906374815275e+01 9.442576469422263585e+01
2.012134107420277473e+02 4.246538482334576514e+01 2.763213298349587177e+01 9.435968236435535061e+01
2.010532830173135039e+02 4.241784090224511772e+01 2.763715034111875468e+01 9.435276714378176166e+01
2.005822971053028141e+02 4.243506931876250121e+01 2.764425897320455050e+01 9.436467646887456340e+01
2.001284656195613820e+02 4.244351690024651447e+01 2.763912569271322539e+01 9.432079170325438611e+01
1.990237538668185380e+02 4.250151065466000944e+01 2.762762953453662718e+01 9.423824672991693774e+01
1.977058358876641080e+02 4.301285710336905055e+01 2.759338248090654844e+01 9.422662124874990752e+01
1.969563815428176383e+02 4.387758034328592771e+01 2.758966742419343632e+01 9.421091552218723564e+01
1.971216808878210713e+02 4.428367772179924344e+01 2.763961099179220327e+01 9.419072328112802950e+01
1.971221595824273720e+02 4.433532077950391681e+01 2.766244726009613686e+01 9.423707849607481535e+01
1.971221595824273720e+02 4.433118893579904807e+01 2.769308318439101058e+01 9.436274538924440947e+01
1.971195150786444970e+02 4.429506885942849692e+01 2.771703799358077447e+01 9.435283563169701893e+01
1.972032010816253376e+02 4.424050068110492617e+01 2.771192803573219621e+01 9.434305548331948899e+01
1.973761082645008571e+02 4.422865114268704190e+01 2.770179121316165194e+01 9.431503018604917088e+01
1.975659034267805225e+02 4.424777572934988967e+01 2.769418616131552113e+01 9.426969445193950037e+01
1.976697427853842441e+02 4.424264480620681184e+01 2.768151807574144030e+01 9.427295086394275359e+01
1.976775493879868009e+02 4.426354249577009625e+01 2.767958486281179731e+01 9.414561164130469706e+01
1.976815825332242582e+02 4.426939921324335359e+01 2.768074689631043839e+01 9.392452309272252364e+01
1.977125186002139685e+02 4.426883759133707485e+01 2.768154375062200501e+01 9.384571538467824325e+01
1.978555830560258926e+02 4.428202238841602423e+01 2.769047029896025691e+01 9.379801758222488672e+01
1.980986252674156276e+02 4.429192203048818754e+01 2.772459742426569562e+01 9.378462721908124422e+01
1.983468132802742048e+02 4.426245066428403163e+01 2.776577945777139789e+01 9.376961057859863047e+01
1.982806492304278265e+02 4.427124033118466429e+01 2.780395708415620604e+01 9.370037828259839330e+01
1.982863606808091959e+02 4.416562813208379623e+01 2.783269579357342849e+01 9.366684263883726658e+01
1.980276801986024395e+02 4.401594848455324183e+01 2.781570125122859238e+01 9.367926240334820420e+01
1.974451809937126825e+02 4.402431631763115405e+01 2.775295376455630247e+01 9.373412020622677687e+01
1.968796874155379726e+02 4.410643499938353784e+01 2.761827990186209902e+01 9.378437353935197507e+01
1.965467862348299661e+02 4.426888843218803515e+01 2.756279105637888449e+01 9.383617843771862965e+01
1.965909260714744562e+02 4.432906525499394235e+01 2.757504134861088119e+01 9.392130025538422444e+01
1.966117819685278789e+02 4.434867903671439393e+01 2.758148551941319582e+01 9.402225373095831173e+01
1.967486390967925729e+02 4.433879206693439556e+01 2.746992127723703092e+01 9.409393994490490343e+01
1.968377911764911516e+02 4.431233554705556799e+01 2.732975002186444868e+01 9.408274909366774352e+01
1.969162733327033550e+02 4.426958888667077474e+01 2.724247619174145285e+01 9.399801287464558186e+01
1.968794382276624049e+02 4.422021759069235713e+01 2.715745390307419527e+01 9.370205662891665099e+01
1.970687117368963186e+02 4.415474797310225341e+01 2.709833418824116436e+01 9.347168236085572346e+01
1.972605926809506798e+02 4.409061315467096165e+01 2.708459652159507058e+01 9.336032097692988430e+01
1.972629987626669390e+02 4.406679488997179561e+01 2.708612673265780657e+01 9.326884340118823502e+01
1.973702082160322675e+02 4.405135219878626174e+01 2.707615639077303982e+01 9.335403638912481483e+01
1.978144209486252976e+02 4.406909347144372902e+01 2.706669381985172862e+01 9.334827687755520742e+01
1.981640353788747575e+02 4.406964785315978617e+01 2.706042024983351268e+01 9.336118405080725324e+01
1.978219002275529874e+02 4.407841917471078119e+01 2.707817663465543845e+01 9.323265661434679430e+01
1.977098041839097107e+02 4.407724745468472349e+01 2.707708274865665032e+01 9.308689137450397766e+01
1.977314793694719981e+02 4.409143240897084581e+01 2.707849008082983389e+01 9.299561076012513183e+01
1.977208018940848149e+02 4.407876082266277962e+01 2.707958390997911380e+01 9.297435461148431557e+01
1.977944565088716899e+02 4.406358125718082874e+01 2.707971361624047191e+01 9.312009669558644021e+01
1.978417811667695503e+02 4.406382954860117707e+01 2.708067769494699562e+01 9.359714061790937478e+01
1.977849206568588158e+02 4.407853835244741703e+01 2.707156839079700816e+01 9.356774065062187162e+01
1.975828243528266057e+02 4.410917527448052766e+01 2.705326268119244304e+01 9.352788194819430601e+01
1.974940835145193319e+02 4.412803615338943075e+01 2.704820331662714494e+01 9.386148049011036676e+01
1.974879738476242892e+02 4.413796601062224312e+01 2.704800746113472343e+01 9.438931226480059422e+01
1.974896999117673886e+02 4.414392193339317316e+01 2.704787760282865250e+01 9.466540950503181762e+01
1.970550927411923965e+02 4.405655222500785584e+01 2.704897480825474432e+01 9.476972013751034751e+01
1.967028247098651548e+02 4.396708862025676012e+01 2.704656462506097725e+01 9.485110782699746323e+01
1.968602927927314283e+02 4.391937457639295417e+01 2.704364052300650911e+01 9.487742597524820098e+01
1.968813441198529119e+02 4.391766281374171399e+01 2.703293485986306521e+01 9.488640872374031687e+01
1.967772578364683511e+02 4.389296620137268690e+01 2.701079637658985888e+01 9.490454582555763352e+01
1.967104589797907579e+02 4.386369634319682120e+01 2.700652318417903075e+01 9.486634454604384814e+01
1.969762386869034287e+02 4.385258031824556468e+01 2.701779909795762080e+01 9.485266476697093196e+01
1.972430978869474814e+02 4.385755038160299080e+01 2.702458624174660073e+01 9.494606695316751654e+01
1.978626785870441722e+02 4.386376800999710213e+01 2.699958212894413734e+01 9.538640975098095964e+01
1.991549197967249540e+02 4.385011231465865222e+01 2.698170786176441638e+01 9.577256334132809457e+01
2.003815264839549570e+02 4.393018850534157593e+01 2.701011222667539613e+01 9.573801389825274555e+01
2.015096085590955965e+02 4.409863616615421478e+01 2.711268125615022484e+01 9.568674314147197890e+01
2.023057560744130967e+02 4.416906198243492554e+01 2.728749322780675612e+01 9.581507192536065531e+01
2.020810941618239269e+02 4.423937568616346283e+01 2.733168047994121608e+01 9.590128932777025739e+01
2.019777436036949609e+02 4.425116218234474275e+01 2.709689252326915465e+01 9.590709664090923070e+01
2.020222962567249567e+02 4.418716730313049368e+01 2.700789962839760960e+01 9.589497378699627461e+01
2.021265226555880190e+02 4.418716730313049368e+01 2.699560780455961151e+01 9.579009419995038854e+01
2.030254615974063768e+02 4.420301585527293753e+01 2.698880908705680071e+01 9.559949503274256699e+01
2.036701244012973859e+02 4.416780230992003453e+01 2.700931026030838211e+01 9.528228538741450393e+01
2.039545869747477695e+02 4.408955068745326855e+01 2.690850640109182024e+01 9.523837462008351906e+01
2.043103722576020971e+02 4.405490961585906007e+01 2.681148941363757032e+01 9.524994620251517574e+01
2.046755549195847266e+02 4.403189922145282509e+01 2.689951698483821119e+01 9.525126533911260651e+01
2.054509361965526466e+02 4.398644335801859029e+01 2.709843240221838911e+01 9.525626515518739268e+01
2.059103366886663480e+02 4.401455085379732424e+01 2.727912162401127105e+01 9.522432665915103200e+01
2.061116553425350162e+02 4.408011129729042921e+01 2.743663588885487670e+01 9.517980036826108403e+01
2.060934177717472551e+02 4.423993098527066081e+01 2.743704795377227512e+01 9.510295688670971970e+01
2.060656602387693965e+02 4.450313879606146372e+01 2.745064416179699407e+01 9.492497028963822459e+01
2.060948755035892361e+02 4.461981559959107813e+01 2.744887383514302570e+01 9.481371700400403313e+01
2.060301260613115915e+02 4.463507127788092532e+01 2.753096433214062344e+01 9.480513913247897051e+01
2.058896446760738570e+02 4.462926695859468396e+01 2.751140434251947298e+01 9.470729149153210358e+01
2.059725477165341943e+02 4.466798854162614418e+01 2.751363202955217346e+01 9.399492643986357621e+01
2.059920069964850597e+02 4.468279870593206482e+01 2.752747262677050699e+01 9.349077626237804850e+01
2.060054623587441540e+02 4.469721174340570258e+01 2.765863511487144066e+01 9.341670655128395140e+01
2.059046557026818789e+02 4.473643027490582824e+01 2.779537325127330405e+01 9.345041013561881016e+01
2.057918417723112157e+02 4.479402938348120244e+01 2.789347589271726946e+01 9.355152942877005273e+01
2.056106157396547474e+02 4.483185822405213372e+01 2.793351251413970715e+01 9.337881333697720265e+01
2.052316629178839946e+02 4.479447607292865285e+01 2.793576097437833639e+01 9.308796883182790793e+01
2.052824464527836028e+02 4.479689664647366953e+01 2.791611041276344807e+01 9.291191526836246339e+01
2.054001231840914841e+02 4.481522396725073065e+01 2.790398645816758005e+01 9.270829609627914181e+01
2.051497413677140287e+02 4.482537338764186075e+01 2.790083645946120328e+01 9.253051151043115397e+01
2.044806667224066814e+02 4.485589537033949625e+01 2.787900328092092650e+01 9.254666261936208116e+01
2.043428410100044630e+02 4.486014579536619351e+01 2.789576935554206472e+01 9.266569818788772750e+01
2.039375458498016656e+02 4.484404928053268691e+01 2.792421972298598476e+01 9.264762905263881976e+01
2.030657801877016198e+02 4.487447109654713273e+01 2.792421972298598831e+01 9.268548865812471149e+01
2.029928189430354166e+02 4.483435422836872419e+01 2.790031483294766801e+01 9.268928737962133368e+01
2.034145010898681392e+02 4.475049190323510828e+01 2.786958644719364031e+01 9.264227541395648302e+01
2.037785455420662402e+02 4.473420511221263496e+01 2.784060084297031779e+01 9.261978026581955703e+01
2.042299685512387271e+02 4.471320555341018377e+01 2.786885605577666425e+01 9.268389322312351908e+01
2.045650403525488912e+02 4.474700395819640164e+01 2.788363210662484448e+01 9.267333628415114788e+01
2.045238400794390259e+02 4.473048108461959060e+01 2.789162759427279781e+01 9.259675456347645195e+01
2.046785290841224025e+02 4.470187545455832634e+01 2.790081424076365124e+01 9.260616376322921894e+01
2.049055424356304229e+02 4.467452350241888581e+01 2.789043760319296084e+01 9.254287652186974356e+01
2.052982523043972094e+02 4.462283026831494226e+01 2.785535509193159953e+01 9.250360317109470998e+01
2.055584797726426700e+02 4.467238604576110106e+01 2.785271559502950112e+01 9.250031822566178619e+01
2.056264067011820771e+02 4.489363137411412907e+01 2.786530585114040548e+01 9.219485208019317213e+01
2.055185675155408944e+02 4.494728955248407942e+01 2.791925632135640711e+01 9.197639150511415096e+01
2.056183227400708518e+02 4.498638322612941209e+01 2.799776610120171227e+01 9.192636552898575530e+01
2.056155700583979353e+02 4.496353635122773795e+01 2.801689421077218256e+01 9.193175170343505442e+01
2.056171102200396490e+02 4.481437159641437518e+01 2.799295066293655054e+01 9.177940090635100034e+01
2.056123059897921905e+02 4.471757004289825943e+01 2.801365276749178079e+01 9.164973443574201895e+01
2.057513088231516747e+02 4.464610700439824598e+01 2.808019885858360354e+01 9.212663428655530140e+01
2.058432580640909464e+02 4.454955606671644119e+01 2.805922009638899439e+01 9.210914685731292195e+01
2.054163153131706565e+02 4.440306692269703603e+01 2.813953010726369541e+01 9.214606636224561953e+01
2.047765704606851500e+02 4.441979023612686461e+01 2.811399547160808510e+01 9.217396807983283225e+01
2.046563555349306682e+02 4.446930073996567501e+01 2.824287662858724701e+01 9.216404243251291462e+01
2.046168113504849657e+02 4.453437677100142622e+01 2.839830132838230270e+01 9.227760420850792400e+01
2.046020987126963746e+02 4.451246112429092960e+01 2.840244078134130845e+01 9.235629933979619466e+01
2.046275453208583599e+02 4.438915156035513121e+01 2.835054355912069468e+01 9.263203337022264350e+01
2.049728995492817489e+02 4.432383417509716850e+01 2.826864363101986299e+01 9.383955750482863323e+01
2.047772431556786898e+02 4.427868880241951643e+01 2.821466293574317774e+01 9.475092811511332513e+01
2.049845282221074285e+02 4.423515959575043155e+01 2.817346558905382281e+01 9.519094520416339833e+01
2.054055408679131745e+02 4.421268399039855979e+01 2.817077346076248290e+01 9.548395197216146357e+01
2.054368022493534340e+02 4.420241340177605593e+01 2.823271675941937886e+01 9.571680070044496347e+01
2.054408046246897754e+02 4.419638192772697494e+01 2.828862455365407058e+01 9.557288658224170774e+01
2.054429546264362898e+02 4.418742192835926375e+01 2.828874871636424615e+01 9.618914248809670653e+01
2.058112128355497532e+02 4.412920546737173311e+01 2.832860683227468002e+01 9.686500251577984955e+01
2.055496375186294813e+02 4.402900159161963956e+01 2.848182249958032131e+01 9.704343899846450938e+01
2.049311157399968408e+02 4.395890466979560784e+01 2.865391204735576380e+01 9.734828309450918482e+01
2.046666587034634404e+02 4.400629415021042945e+01 2.875589709429354457e+01 9.757913141463890838e+01
2.052783170099559982e+02 4.409218815445858297e+01 2.887394457737978826e+01 9.762904506321552844e+01
2.056143735929956620e+02 4.419229578265323966e+01 2.894429584870911398e+01 9.804857672620939013e+01
2.060166729622629020e+02 4.425750156084477993e+01 2.896154670900018857e+01 9.839890253321952684e+01
2.063571639581238060e+02 4.427396527300039253e+01 2.898207193313825059e+01 9.845910012132975453e+01
2.065788185173881573e+02 4.417924259658803265e+01 2.897529151428161143e+01 9.825679063492441401e+01
2.066024991427741497e+02 4.402092615027741829e+01 2.896213254747653920e+01 9.803010510386781107e+01
2.061782781479174105e+02 4.393072325235318942e+01 2.896846414875320619e+01 9.784325753289647309e+01
2.057041029227175670e+02 4.384565138796372707e+01 2.905157279765761302e+01 9.766654599023166838e+01
2.050582403027002840e+02 4.376429518753286629e+01 2.927708772022244332e+01 9.755434684924109945e+01
2.043633528616126114e+02 4.374770132149625823e+01 2.940425050800648776e+01 9.751721518806496647e+01
2.041321420453917028e+02 4.379339407758715197e+01 2.952986073684736468e+01 9.750264630013229805e+01
2.039379326972792228e+02 4.380672197225952402e+01 2.970768852835238150e+01 9.754200335777764508e+01
2.039527776678709472e+02 4.383070316427567548e+01 2.970502638304837362e+01 9.761112508183704506e+01
2.040122528203636989e+02 4.383491526270101701e+01 2.977867417225958135e+01 9.767700263191623833e+01
2.040174748163499885e+02 4.384132207292010719e+01 2.987106171694604839e+01 9.774267088777229162e+01
2.040018432211826962e+02 4.380298979302872908e+01 2.996383904805257004e+01 9.774615414147353931e+01
2.039911974395954246e+02 4.376750466706449316e+01 2.999565474293901346e+01 9.770043946654166689e+01
2.039639552627865555e+02 4.390400881356407581e+01 2.999312617146802040e+01 9.766844232337983556e+01
2.037119789488089623e+02 4.395700067939325351e+01 2.997281712381403196e+01 9.762776977292563174e+01
2.033591125414349108e+02 4.393200928626163915e+01 2.992243163811389906e+01 9.759651200711719810e+01
2.031570145814315538e+02 4.389941125476337902e+01 2.993011001278811634e+01 9.753001920835470173e+01
2.030824820944435771e+02 4.392855651116759930e+01 2.993914788796767823e+01 9.738163279555702445e+01
2.030929779742273524e+02 4.390394902247608400e+01 2.994121150684453525e+01 9.715612142722680744e+01
2.031340261345695808e+02 4.386623013399007220e+01 2.994412147613617137e+01 9.722329979181279214e+01
2.031973089468460500e+02 4.376748660678204317e+01 2.995034316360331061e+01 9.743076346320005143e+01
