4.314000000000000057e+01 1.000000000000000000e+01 5.197999999999999687e+01 1.500000000000000000e+01 1.300000000000000000e+01 1.883999999999999986e+01
4.178000000000000114e+01 1.000000000000000000e+01 5.200000000000000000e+01 1.430000000000000071e+01 1.298000000000000043e+01 1.900000000000000000e+01
4.315999999999999659e+01 1.000000000000000000e+01 5.178000000000000114e+01 1.493999999999999950e+01 1.300000000000000000e+01 1.937999999999999901e+01
4.110000000000000142e+01 1.000000000000000000e+01 4.965999999999999659e+01 1.364000000000000057e+01 1.350000000000000000e+01 1.905999999999999872e+01
3.934000000000000341e+01 1.000000000000000000e+01 4.778000000000000114e+01 1.300000000000000000e+01 1.400000000000000000e+01 1.900000000000000000e+01
3.924000000000000199e+01 1.000000000000000000e+01 4.706000000000000227e+01 1.300000000000000000e+01 1.400000000000000000e+01 1.850000000000000000e+01
3.915999999999999659e+01 1.000000000000000000e+01 4.767999999999999972e+01 1.319999999999999929e+01 1.400000000000000000e+01 1.835999999999999943e+01
3.828000000000000114e+01 1.000000000000000000e+01 4.632000000000000028e+01 1.300000000000000000e+01 1.400000000000000000e+01 1.766000000000000014e+01
3.988000000000000256e+01 9.439999999999999503e+00 4.535999999999999943e+01 1.300000000000000000e+01 1.400000000000000000e+01 1.730000000000000071e+01
4.221999999999999886e+01 9.720000000000000639e+00 4.450000000000000000e+01 1.300000000000000000e+01 1.408000000000000007e+01 1.700000000000000000e+01
4.135999999999999943e+01 9.060000000000000497e+00 4.385999999999999943e+01 1.396000000000000085e+01 1.591999999999999993e+01 1.660000000000000142e+01
4.032000000000000028e+01 9.580000000000000071e+00 4.400000000000000000e+01 1.669999999999999929e+01 1.723999999999999844e+01 1.653999999999999915e+01
3.893999999999999773e+01 9.500000000000000000e+00 4.397999999999999687e+01 1.962000000000000099e+01 2.023999999999999844e+01 1.600000000000000000e+01
3.857999999999999829e+01 1.000000000000000000e+01 4.435999999999999943e+01 1.969999999999999929e+01 2.000000000000000000e+01 1.600000000000000000e+01
3.856000000000000227e+01 1.000000000000000000e+01 4.597999999999999687e+01 2.000000000000000000e+01 2.000000000000000000e+01 1.603999999999999915e+01
3.835999999999999943e+01 9.380000000000000782e+00 4.600000000000000000e+01 2.000000000000000000e+01 2.000000000000000000e+01 1.642000000000000171e+01
3.760000000000000142e+01 9.919999999999999929e+00 4.517999999999999972e+01 2.000000000000000000e+01 2.000000000000000000e+01 1.698000000000000043e+01
3.747999999999999687e+01 1.000000000000000000e+01 4.574000000000000199e+01 2.000000000000000000e+01 2.000000000000000000e+01 1.660000000000000142e+01
3.670000000000000284e+01 9.679999999999999716e+00 4.500000000000000000e+01 2.000000000000000000e+01 2.000000000000000000e+01 1.600000000000000000e+01
3.353999999999999915e+01 9.000000000000000000e+00 4.493999999999999773e+01 2.000000000000000000e+01 2.000000000000000000e+01 1.600000000000000000e+01
3.379999999999999716e+01 9.000000000000000000e+00 4.442000000000000171e+01 1.921999999999999886e+01 1.880000000000000071e+01 1.522000000000000064e+01
3.324000000000000199e+01 9.000000000000000000e+00 4.492000000000000171e+01 1.737999999999999901e+01 1.712000000000000099e+01 1.482000000000000028e+01
3.214000000000000057e+01 8.720000000000000639e+00 4.353999999999999915e+01 1.425999999999999979e+01 1.298000000000000043e+01 1.424000000000000021e+01
3.194000000000000128e+01 8.300000000000000711e+00 4.324000000000000199e+01 1.400000000000000000e+01 1.200000000000000000e+01 1.417999999999999972e+01
3.267999999999999972e+01 8.119999999999999218e+00 4.267999999999999972e+01 1.396000000000000085e+01 1.200000000000000000e+01 1.475999999999999979e+01
3.239999999999999858e+01 9.000000000000000000e+00 4.265999999999999659e+01 1.356000000000000050e+01 1.230000000000000071e+01 1.517999999999999972e+01
3.374000000000000199e+01 9.000000000000000000e+00 4.129999999999999716e+01 1.383999999999999986e+01 1.451999999999999957e+01 1.816000000000000014e+01
3.400000000000000000e+01 9.000000000000000000e+00 4.050000000000000000e+01 1.400000000000000000e+01 1.500000000000000000e+01 1.900000000000000000e+01
3.396000000000000085e+01 9.000000000000000000e+00 4.111999999999999744e+01 1.390000000000000036e+01 1.500000000000000000e+01 1.900000000000000000e+01
3.350000000000000000e+01 9.000000000000000000e+00 4.117999999999999972e+01 1.409999999999999964e+01 1.566000000000000014e+01 1.917999999999999972e+01
3.325999999999999801e+01 9.039999999999999147e+00 4.046000000000000085e+01 1.441999999999999993e+01 1.600000000000000000e+01 1.971999999999999886e+01
3.300000000000000000e+01 9.000000000000000000e+00 3.856000000000000227e+01 1.400000000000000000e+01 1.600000000000000000e+01 2.000000000000000000e+01
3.371999999999999886e+01 9.000000000000000000e+00 3.978000000000000114e+01 1.400000000000000000e+01 1.585999999999999943e+01 2.046000000000000085e+01
3.375999999999999801e+01 9.000000000000000000e+00 3.982000000000000028e+01 1.400000000000000000e+01 1.700000000000000000e+01 2.062000000000000099e+01
3.325999999999999801e+01 9.000000000000000000e+00 3.903999999999999915e+01 1.400000000000000000e+01 1.732000000000000028e+01 2.183999999999999986e+01
3.200000000000000000e+01 9.000000000000000000e+00 3.874000000000000199e+01 1.390000000000000036e+01 1.800000000000000000e+01 2.189999999999999858e+01
2.953999999999999915e+01 9.000000000000000000e+00 3.914000000000000057e+01 1.400000000000000000e+01 1.632000000000000028e+01 2.060000000000000142e+01
3.221999999999999886e+01 9.000000000000000000e+00 4.000000000000000000e+01 1.443999999999999950e+01 1.600000000000000000e+01 2.064000000000000057e+01
3.250000000000000000e+01 9.000000000000000000e+00 3.988000000000000256e+01 1.427999999999999936e+01 1.600000000000000000e+01 2.100000000000000000e+01
3.324000000000000199e+01 9.000000000000000000e+00 4.002000000000000313e+01 1.398000000000000043e+01 1.514000000000000057e+01 2.100000000000000000e+01
2.439999999999999858e+01 5.675999999999999801e+01 1.380000000000000071e+01 1.600000000000000000e+01 1.098000000000000043e+01 1.432000000000000028e+01
2.430000000000000071e+01 5.435999999999999943e+01 1.364000000000000057e+01 1.593999999999999950e+01 1.100000000000000000e+01 1.400000000000000000e+01
2.567999999999999972e+01 5.625999999999999801e+01 1.300000000000000000e+01 1.628000000000000114e+01 1.117999999999999972e+01 1.409999999999999964e+01
2.594000000000000128e+01 5.784000000000000341e+01 1.300000000000000000e+01 1.703999999999999915e+01 1.125999999999999979e+01 1.443999999999999950e+01
2.626000000000000156e+01 6.114000000000000057e+01 1.390000000000000036e+01 1.955999999999999872e+01 1.174000000000000021e+01 1.556000000000000050e+01
2.607999999999999829e+01 6.773999999999999488e+01 1.400000000000000000e+01 2.450000000000000000e+01 1.351999999999999957e+01 1.783999999999999986e+01
2.655999999999999872e+01 7.279999999999999716e+01 1.400000000000000000e+01 2.516000000000000014e+01 1.369999999999999929e+01 1.873999999999999844e+01
2.735999999999999943e+01 7.476000000000000512e+01 1.469999999999999929e+01 2.600000000000000000e+01 1.400000000000000000e+01 1.900000000000000000e+01
2.666000000000000014e+01 7.573999999999999488e+01 1.488000000000000078e+01 2.600000000000000000e+01 1.400000000000000000e+01 1.900000000000000000e+01
2.617999999999999972e+01 7.554000000000000625e+01 1.400000000000000000e+01 2.533999999999999986e+01 1.332000000000000028e+01 1.900000000000000000e+01
2.610000000000000142e+01 7.698000000000000398e+01 1.400000000000000000e+01 2.548000000000000043e+01 1.300000000000000000e+01 1.900000000000000000e+01
2.569999999999999929e+01 7.650000000000000000e+01 1.385999999999999943e+01 2.667999999999999972e+01 1.300000000000000000e+01 1.916000000000000014e+01
2.496000000000000085e+01 7.634000000000000341e+01 1.300000000000000000e+01 2.700000000000000000e+01 1.300000000000000000e+01 1.951999999999999957e+01
2.416000000000000014e+01 7.509999999999999432e+01 1.375999999999999979e+01 2.687999999999999901e+01 1.300000000000000000e+01 1.905999999999999872e+01
2.400000000000000000e+01 7.214000000000000057e+01 1.291999999999999993e+01 2.476000000000000156e+01 1.274000000000000021e+01 1.835999999999999943e+01
2.321999999999999886e+01 6.506000000000000227e+01 1.200000000000000000e+01 1.983999999999999986e+01 1.100000000000000000e+01 1.593999999999999950e+01
2.294000000000000128e+01 5.834000000000000341e+01 1.200000000000000000e+01 1.900000000000000000e+01 1.100000000000000000e+01 1.459999999999999964e+01
2.069999999999999929e+01 5.329999999999999716e+01 1.166000000000000014e+01 1.792000000000000171e+01 1.000000000000000000e+01 1.393999999999999950e+01
2.069999999999999929e+01 5.196000000000000085e+01 1.185999999999999943e+01 1.728000000000000114e+01 1.000000000000000000e+01 1.367999999999999972e+01
2.082000000000000028e+01 5.203999999999999915e+01 1.200000000000000000e+01 1.700000000000000000e+01 1.032000000000000028e+01 1.300000000000000000e+01
2.117999999999999972e+01 5.142000000000000171e+01 1.200000000000000000e+01 1.721999999999999886e+01 1.035999999999999943e+01 1.300000000000000000e+01
2.196000000000000085e+01 5.143999999999999773e+01 1.200000000000000000e+01 1.538000000000000078e+01 1.000000000000000000e+01 1.291999999999999993e+01
2.142000000000000171e+01 4.935999999999999943e+01 1.200000000000000000e+01 1.430000000000000071e+01 1.000000000000000000e+01 1.200000000000000000e+01
2.100000000000000000e+01 4.750000000000000000e+01 1.200000000000000000e+01 1.400000000000000000e+01 9.980000000000000426e+00 1.200000000000000000e+01
2.000000000000000000e+01 4.638000000000000256e+01 1.200000000000000000e+01 1.393999999999999950e+01 9.039999999999999147e+00 1.175999999999999979e+01
1.985999999999999943e+01 4.692000000000000171e+01 1.272000000000000064e+01 1.400000000000000000e+01 9.000000000000000000e+00 1.100000000000000000e+01
1.900000000000000000e+01 4.652000000000000313e+01 1.259999999999999964e+01 1.346000000000000085e+01 9.000000000000000000e+00 1.100000000000000000e+01
1.928000000000000114e+01 4.638000000000000256e+01 1.253999999999999915e+01 1.300000000000000000e+01 9.000000000000000000e+00 1.100000000000000000e+01
1.900000000000000000e+01 4.552000000000000313e+01 1.300000000000000000e+01 1.300000000000000000e+01 9.000000000000000000e+00 1.100000000000000000e+01
1.900000000000000000e+01 4.379999999999999716e+01 1.298000000000000043e+01 1.300000000000000000e+01 8.039999999999999147e+00 1.100000000000000000e+01
1.730000000000000071e+01 4.074000000000000199e+01 1.266000000000000014e+01 1.216000000000000014e+01 8.000000000000000000e+00 1.024000000000000021e+01
1.700000000000000000e+01 3.775999999999999801e+01 1.266000000000000014e+01 1.200000000000000000e+01 7.059999999999999609e+00 9.580000000000000071e+00
1.700000000000000000e+01 3.785999999999999943e+01 1.238000000000000078e+01 1.166000000000000014e+01 7.000000000000000000e+00 9.000000000000000000e+00
1.700000000000000000e+01 3.800000000000000000e+01 1.232000000000000028e+01 1.100000000000000000e+01 7.000000000000000000e+00 9.000000000000000000e+00
1.682000000000000028e+01 3.685999999999999943e+01 1.246000000000000085e+01 1.100000000000000000e+01 7.000000000000000000e+00 9.000000000000000000e+00
1.705999999999999872e+01 3.475999999999999801e+01 1.196000000000000085e+01 1.083999999999999986e+01 6.120000000000000107e+00 9.000000000000000000e+00
1.712000000000000099e+01 3.302000000000000313e+01 1.185999999999999943e+01 1.100000000000000000e+01 6.139999999999999680e+00 9.000000000000000000e+00
1.700000000000000000e+01 3.261999999999999744e+01 1.058000000000000007e+01 1.080000000000000071e+01 6.219999999999999751e+00 8.679999999999999716e+00
1.655999999999999872e+01 3.105999999999999872e+01 9.720000000000000639e+00 1.000000000000000000e+01 6.000000000000000000e+00 8.000000000000000000e+00
1.525999999999999979e+01 3.003999999999999915e+01 9.000000000000000000e+00 9.560000000000000497e+00 6.000000000000000000e+00 8.000000000000000000e+00
1.798000000000000043e+01 4.838000000000000256e+01 8.359999999999999432e+00 1.300000000000000000e+01 5.980000000000000426e+00 8.000000000000000000e+00
1.800000000000000000e+01 4.689999999999999858e+01 8.199999999999999289e+00 1.316000000000000014e+01 6.000000000000000000e+00 8.000000000000000000e+00
1.800000000000000000e+01 4.484000000000000341e+01 8.000000000000000000e+00 1.300000000000000000e+01 6.000000000000000000e+00 8.000000000000000000e+00
1.800000000000000000e+01 4.453999999999999915e+01 8.000000000000000000e+00 1.269999999999999929e+01 5.860000000000000320e+00 7.839999999999999858e+00
1.800000000000000000e+01 4.389999999999999858e+01 8.000000000000000000e+00 1.196000000000000085e+01 5.000000000000000000e+00 7.959999999999999964e+00
1.787999999999999901e+01 4.302000000000000313e+01 8.000000000000000000e+00 1.100000000000000000e+01 5.000000000000000000e+00 7.780000000000000249e+00
1.800000000000000000e+01 4.382000000000000028e+01 8.980000000000000426e+00 1.100000000000000000e+01 5.000000000000000000e+00 7.480000000000000426e+00
1.848000000000000043e+01 4.379999999999999716e+01 8.419999999999999929e+00 1.100000000000000000e+01 5.000000000000000000e+00 7.000000000000000000e+00
1.826000000000000156e+01 4.275999999999999801e+01 8.880000000000000782e+00 1.100000000000000000e+01 5.059999999999999609e+00 7.000000000000000000e+00
1.800000000000000000e+01 4.174000000000000199e+01 9.000000000000000000e+00 1.227999999999999936e+01 5.919999999999999929e+00 7.000000000000000000e+00
1.755999999999999872e+01 3.993999999999999773e+01 8.820000000000000284e+00 1.400000000000000000e+01 6.000000000000000000e+00 7.000000000000000000e+00
1.700000000000000000e+01 3.989999999999999858e+01 9.000000000000000000e+00 1.400000000000000000e+01 6.000000000000000000e+00 7.299999999999999822e+00
1.687999999999999901e+01 3.934000000000000341e+01 9.160000000000000142e+00 1.400000000000000000e+01 6.000000000000000000e+00 8.000000000000000000e+00
1.726000000000000156e+01 3.952000000000000313e+01 1.000000000000000000e+01 1.472000000000000064e+01 6.000000000000000000e+00 8.000000000000000000e+00
1.810000000000000142e+01 4.071999999999999886e+01 1.000000000000000000e+01 1.525999999999999979e+01 6.000000000000000000e+00 8.160000000000000142e+00
1.900000000000000000e+01 4.164000000000000057e+01 1.000000000000000000e+01 1.600000000000000000e+01 6.179999999999999716e+00 8.939999999999999503e+00
1.900000000000000000e+01 4.235999999999999943e+01 9.019999999999999574e+00 1.600000000000000000e+01 6.700000000000000178e+00 8.880000000000000782e+00
1.898000000000000043e+01 4.328000000000000114e+01 9.460000000000000853e+00 1.600000000000000000e+01 6.799999999999999822e+00 9.000000000000000000e+00
1.889999999999999858e+01 4.306000000000000227e+01 9.099999999999999645e+00 1.650000000000000000e+01 6.519999999999999574e+00 9.000000000000000000e+00
1.992000000000000171e+01 4.300000000000000000e+01 9.000000000000000000e+00 1.546000000000000085e+01 6.000000000000000000e+00 9.000000000000000000e+00
2.000000000000000000e+01 4.343999999999999773e+01 9.179999999999999716e+00 1.496000000000000085e+01 6.000000000000000000e+00 9.000000000000000000e+00
2.000000000000000000e+01 4.356000000000000227e+01 9.720000000000000639e+00 1.500000000000000000e+01 6.000000000000000000e+00 9.000000000000000000e+00
2.000000000000000000e+01 4.471999999999999886e+01 9.000000000000000000e+00 1.500000000000000000e+01 6.000000000000000000e+00 9.000000000000000000e+00
2.000000000000000000e+01 4.506000000000000227e+01 9.000000000000000000e+00 1.443999999999999950e+01 6.000000000000000000e+00 9.000000000000000000e+00
1.980000000000000071e+01 4.506000000000000227e+01 9.000000000000000000e+00 1.422000000000000064e+01 6.000000000000000000e+00 9.000000000000000000e+00
1.842000000000000171e+01 4.565999999999999659e+01 9.000000000000000000e+00 1.500000000000000000e+01 6.000000000000000000e+00 9.000000000000000000e+00
1.982000000000000028e+01 4.657999999999999829e+01 9.000000000000000000e+00 1.500000000000000000e+01 6.000000000000000000e+00 9.000000000000000000e+00
1.969999999999999929e+01 4.578000000000000114e+01 9.320000000000000284e+00 1.561999999999999922e+01 6.000000000000000000e+00 9.039999999999999147e+00
2.066000000000000014e+01 4.785999999999999943e+01 9.800000000000000711e+00 1.501999999999999957e+01 6.299999999999999822e+00 9.960000000000000853e+00
2.180000000000000071e+01 4.800000000000000000e+01 1.000000000000000000e+01 1.600000000000000000e+01 7.000000000000000000e+00 1.000000000000000000e+01
2.198000000000000043e+01 4.850000000000000000e+01 9.240000000000000213e+00 1.600000000000000000e+01 6.740000000000000213e+00 1.000000000000000000e+01
2.207999999999999829e+01 4.947999999999999687e+01 9.000000000000000000e+00 1.600000000000000000e+01 6.000000000000000000e+00 1.000000000000000000e+01
2.239999999999999858e+01 5.011999999999999744e+01 9.000000000000000000e+00 1.600000000000000000e+01 6.000000000000000000e+00 1.000000000000000000e+01
2.300000000000000000e+01 4.961999999999999744e+01 9.480000000000000426e+00 1.596000000000000085e+01 6.360000000000000320e+00 1.000000000000000000e+01
2.300000000000000000e+01 4.964000000000000057e+01 9.699999999999999289e+00 1.558000000000000007e+01 7.000000000000000000e+00 9.259999999999999787e+00
2.300000000000000000e+01 4.829999999999999716e+01 9.000000000000000000e+00 1.500000000000000000e+01 7.000000000000000000e+00 9.000000000000000000e+00
2.117999999999999972e+01 4.621999999999999886e+01 9.000000000000000000e+00 1.446000000000000085e+01 6.179999999999999716e+00 8.419999999999999929e+00
2.042000000000000171e+01 4.482000000000000028e+01 8.179999999999999716e+00 1.388000000000000078e+01 6.000000000000000000e+00 8.000000000000000000e+00
1.864000000000000057e+01 4.124000000000000199e+01 7.740000000000000213e+00 1.300000000000000000e+01 5.599999999999999645e+00 7.059999999999999609e+00
1.644000000000000128e+01 3.888000000000000256e+01 7.000000000000000000e+00 1.211999999999999922e+01 5.000000000000000000e+00 6.259999999999999787e+00
1.957999999999999829e+01 5.261999999999999744e+01 1.000000000000000000e+01 1.700000000000000000e+01 8.779999999999999361e+00 1.500000000000000000e+01
1.998000000000000043e+01 5.107999999999999829e+01 9.939999999999999503e+00 1.726000000000000156e+01 8.859999999999999432e+00 1.433999999999999986e+01
1.992000000000000171e+01 5.134000000000000341e+01 1.000000000000000000e+01 1.676000000000000156e+01 8.419999999999999929e+00 1.201999999999999957e+01
1.983999999999999986e+01 5.035999999999999943e+01 9.820000000000000284e+00 1.601999999999999957e+01 8.000000000000000000e+00 1.122000000000000064e+01
1.917999999999999972e+01 4.656000000000000227e+01 9.619999999999999218e+00 1.600000000000000000e+01 8.000000000000000000e+00 1.035999999999999943e+01
1.878000000000000114e+01 4.353999999999999915e+01 9.000000000000000000e+00 1.598000000000000043e+01 7.679999999999999716e+00 9.240000000000000213e+00
1.864000000000000057e+01 4.370000000000000284e+01 9.000000000000000000e+00 1.556000000000000050e+01 7.959999999999999964e+00 9.300000000000000711e+00
1.955999999999999872e+01 4.600000000000000000e+01 9.000000000000000000e+00 1.575999999999999979e+01 7.400000000000000355e+00 1.000000000000000000e+01
2.017999999999999972e+01 4.665999999999999659e+01 9.000000000000000000e+00 1.488000000000000078e+01 7.000000000000000000e+00 1.000000000000000000e+01
2.001999999999999957e+01 4.700000000000000000e+01 9.480000000000000426e+00 1.472000000000000064e+01 7.000000000000000000e+00 1.006000000000000050e+01
2.069999999999999929e+01 4.724000000000000199e+01 1.000000000000000000e+01 1.430000000000000071e+01 7.000000000000000000e+00 1.093999999999999950e+01
2.003999999999999915e+01 4.707999999999999829e+01 1.000000000000000000e+01 1.372000000000000064e+01 6.660000000000000142e+00 1.009999999999999964e+01
2.103999999999999915e+01 4.602000000000000313e+01 9.960000000000000853e+00 1.256000000000000050e+01 6.000000000000000000e+00 1.009999999999999964e+01
2.150000000000000000e+01 4.603999999999999915e+01 9.460000000000000853e+00 1.200000000000000000e+01 6.000000000000000000e+00 1.000000000000000000e+01
2.214000000000000057e+01 4.628000000000000114e+01 1.000000000000000000e+01 1.200000000000000000e+01 6.000000000000000000e+00 1.000000000000000000e+01
2.300000000000000000e+01 4.738000000000000256e+01 1.000000000000000000e+01 1.200000000000000000e+01 6.000000000000000000e+00 1.000000000000000000e+01
2.276000000000000156e+01 4.743999999999999773e+01 1.000000000000000000e+01 1.200000000000000000e+01 6.000000000000000000e+00 1.000000000000000000e+01
2.221999999999999886e+01 4.496000000000000085e+01 1.069999999999999929e+01 1.161999999999999922e+01 6.000000000000000000e+00 1.019999999999999929e+01
2.328000000000000114e+01 4.714000000000000057e+01 1.100000000000000000e+01 1.200000000000000000e+01 6.740000000000000213e+00 1.083999999999999986e+01
2.580000000000000071e+01 5.332000000000000028e+01 1.100000000000000000e+01 1.248000000000000043e+01 7.000000000000000000e+00 1.100000000000000000e+01
2.701999999999999957e+01 5.546000000000000085e+01 1.003999999999999915e+01 1.300000000000000000e+01 7.419999999999999929e+00 1.100000000000000000e+01
2.800000000000000000e+01 5.552000000000000313e+01 1.000000000000000000e+01 1.300000000000000000e+01 8.000000000000000000e+00 1.100000000000000000e+01
2.716000000000000014e+01 5.634000000000000341e+01 1.066000000000000014e+01 1.390000000000000036e+01 8.000000000000000000e+00 1.100000000000000000e+01
2.692000000000000171e+01 5.624000000000000199e+01 1.100000000000000000e+01 1.400000000000000000e+01 8.000000000000000000e+00 1.100000000000000000e+01
2.678000000000000114e+01 5.589999999999999858e+01 1.100000000000000000e+01 1.396000000000000085e+01 8.000000000000000000e+00 1.109999999999999964e+01
2.648000000000000043e+01 5.561999999999999744e+01 1.100000000000000000e+01 1.343999999999999950e+01 8.000000000000000000e+00 1.146000000000000085e+01
2.644000000000000128e+01 5.484000000000000341e+01 1.035999999999999943e+01 1.361999999999999922e+01 8.000000000000000000e+00 1.100000000000000000e+01
2.700000000000000000e+01 5.471999999999999886e+01 1.009999999999999964e+01 1.361999999999999922e+01 7.980000000000000426e+00 1.066000000000000014e+01
2.596000000000000085e+01 5.146000000000000085e+01 1.000000000000000000e+01 1.300000000000000000e+01 7.000000000000000000e+00 1.000000000000000000e+01
2.400000000000000000e+01 4.529999999999999716e+01 9.699999999999999289e+00 1.253999999999999915e+01 7.000000000000000000e+00 9.460000000000000853e+00
2.266000000000000014e+01 4.420000000000000284e+01 1.000000000000000000e+01 1.200000000000000000e+01 7.000000000000000000e+00 9.019999999999999574e+00
2.146000000000000085e+01 4.317999999999999972e+01 1.000000000000000000e+01 1.264000000000000057e+01 7.000000000000000000e+00 9.339999999999999858e+00
2.200000000000000000e+01 4.203999999999999915e+01 9.480000000000000426e+00 1.238000000000000078e+01 7.000000000000000000e+00 9.359999999999999432e+00
2.387999999999999901e+01 4.942000000000000171e+01 9.140000000000000568e+00 1.300000000000000000e+01 7.919999999999999929e+00 1.182000000000000028e+01
2.500000000000000000e+01 5.282000000000000028e+01 9.039999999999999147e+00 1.356000000000000050e+01 8.000000000000000000e+00 1.300000000000000000e+01
2.533999999999999986e+01 5.453999999999999915e+01 9.960000000000000853e+00 1.409999999999999964e+01 8.000000000000000000e+00 1.348000000000000043e+01
2.655999999999999872e+01 5.664000000000000057e+01 1.000000000000000000e+01 1.500000000000000000e+01 8.000000000000000000e+00 1.408000000000000007e+01
2.778000000000000114e+01 6.047999999999999687e+01 1.000000000000000000e+01 1.574000000000000021e+01 8.240000000000000213e+00 1.498000000000000043e+01
2.900000000000000000e+01 6.485999999999999943e+01 1.000000000000000000e+01 1.600000000000000000e+01 9.000000000000000000e+00 1.600000000000000000e+01
2.951999999999999957e+01 6.731999999999999318e+01 1.000000000000000000e+01 1.600000000000000000e+01 9.000000000000000000e+00 1.650000000000000000e+01
8.000000000000000000e+00 3.000000000000000000e+00 1.300000000000000000e+01 4.000000000000000000e+00 1.000000000000000000e+00 1.000000000000000000e+00
8.000000000000000000e+00 3.000000000000000000e+00 1.300000000000000000e+01 3.580000000000000071e+00 5.999999999999999778e-01 1.000000000000000000e+00
8.000000000000000000e+00 3.000000000000000000e+00 1.206000000000000050e+01 3.000000000000000000e+00 0.000000000000000000e+00 1.000000000000000000e+00
7.400000000000000355e+00 3.000000000000000000e+00 1.200000000000000000e+01 3.000000000000000000e+00 0.000000000000000000e+00 1.000000000000000000e+00
7.000000000000000000e+00 3.000000000000000000e+00 1.200000000000000000e+01 3.000000000000000000e+00 0.000000000000000000e+00 1.000000000000000000e+00
7.000000000000000000e+00 3.000000000000000000e+00 1.183999999999999986e+01 3.000000000000000000e+00 0.000000000000000000e+00 1.000000000000000000e+00
6.360000000000000320e+00 3.000000000000000000e+00 1.100000000000000000e+01 3.000000000000000000e+00 0.000000000000000000e+00 1.000000000000000000e+00
6.000000000000000000e+00 3.000000000000000000e+00 1.083999999999999986e+01 3.779999999999999805e+00 0.000000000000000000e+00 1.000000000000000000e+00
6.000000000000000000e+00 3.000000000000000000e+00 1.000000000000000000e+01 4.000000000000000000e+00 0.000000000000000000e+00 1.000000000000000000e+00
6.080000000000000071e+00 3.000000000000000000e+00 1.000000000000000000e+01 4.000000000000000000e+00 0.000000000000000000e+00 1.000000000000000000e+00
6.599999999999999645e+00 3.000000000000000000e+00 1.000000000000000000e+01 4.000000000000000000e+00 0.000000000000000000e+00 1.000000000000000000e+00
6.000000000000000000e+00 3.000000000000000000e+00 1.000000000000000000e+01 4.000000000000000000e+00 0.000000000000000000e+00 1.000000000000000000e+00
6.000000000000000000e+00 3.000000000000000000e+00 1.000000000000000000e+01 4.000000000000000000e+00 0.000000000000000000e+00 1.000000000000000000e+00
6.000000000000000000e+00 3.000000000000000000e+00 1.093999999999999950e+01 4.000000000000000000e+00 0.000000000000000000e+00 1.000000000000000000e+00
6.759999999999999787e+00 3.000000000000000000e+00 1.100000000000000000e+01 4.000000000000000000e+00 0.000000000000000000e+00 1.000000000000000000e+00
6.959999999999999964e+00 3.000000000000000000e+00 1.085999999999999943e+01 4.000000000000000000e+00 0.000000000000000000e+00 1.000000000000000000e+00
7.000000000000000000e+00 3.000000000000000000e+00 1.100000000000000000e+01 4.000000000000000000e+00 0.000000000000000000e+00 1.000000000000000000e+00
7.000000000000000000e+00 3.000000000000000000e+00 1.077999999999999936e+01 4.000000000000000000e+00 5.000000000000000000e-01 1.000000000000000000e+00
7.000000000000000000e+00 3.000000000000000000e+00 1.100000000000000000e+01 4.000000000000000000e+00 2.800000000000000266e-01 1.000000000000000000e+00
6.740000000000000213e+00 3.000000000000000000e+00 1.085999999999999943e+01 3.839999999999999858e+00 0.000000000000000000e+00 1.000000000000000000e+00
6.379999999999999893e+00 3.000000000000000000e+00 1.009999999999999964e+01 4.000000000000000000e+00 0.000000000000000000e+00 1.000000000000000000e+00
6.700000000000000178e+00 3.000000000000000000e+00 1.051999999999999957e+01 4.000000000000000000e+00 0.000000000000000000e+00 1.000000000000000000e+00
6.280000000000000249e+00 3.000000000000000000e+00 1.000000000000000000e+01 4.000000000000000000e+00 0.000000000000000000e+00 1.000000000000000000e+00
6.919999999999999929e+00 3.000000000000000000e+00 9.240000000000000213e+00 3.240000000000000213e+00 0.000000000000000000e+00 1.000000000000000000e+00
6.000000000000000000e+00 3.000000000000000000e+00 9.000000000000000000e+00 3.000000000000000000e+00 0.000000000000000000e+00 1.000000000000000000e+00
6.000000000000000000e+00 3.000000000000000000e+00 9.039999999999999147e+00 3.419999999999999929e+00 0.000000000000000000e+00 1.000000000000000000e+00
6.000000000000000000e+00 3.000000000000000000e+00 9.000000000000000000e+00 4.000000000000000000e+00 0.000000000000000000e+00 1.000000000000000000e+00
6.000000000000000000e+00 3.000000000000000000e+00 8.779999999999999361e+00 3.540000000000000036e+00 0.000000000000000000e+00 1.000000000000000000e+00
6.000000000000000000e+00 3.000000000000000000e+00 8.259999999999999787e+00 3.000000000000000000e+00 0.000000000000000000e+00 1.000000000000000000e+00
6.000000000000000000e+00 3.000000000000000000e+00 8.419999999999999929e+00 3.859999999999999876e+00 0.000000000000000000e+00 1.000000000000000000e+00
6.000000000000000000e+00 3.000000000000000000e+00 8.380000000000000782e+00 4.000000000000000000e+00 0.000000000000000000e+00 1.000000000000000000e+00
6.000000000000000000e+00 3.000000000000000000e+00 8.000000000000000000e+00 4.000000000000000000e+00 0.000000000000000000e+00 1.000000000000000000e+00
5.719999999999999751e+00 3.000000000000000000e+00 8.240000000000000213e+00 4.000000000000000000e+00 0.000000000000000000e+00 1.000000000000000000e+00
5.000000000000000000e+00 3.000000000000000000e+00 8.439999999999999503e+00 4.000000000000000000e+00 0.000000000000000000e+00 1.000000000000000000e+00
5.000000000000000000e+00 3.000000000000000000e+00 8.000000000000000000e+00 4.000000000000000000e+00 0.000000000000000000e+00 1.000000000000000000e+00
5.839999999999999858e+00 3.000000000000000000e+00 8.439999999999999503e+00 3.680000000000000160e+00 0.000000000000000000e+00 1.000000000000000000e+00
6.000000000000000000e+00 3.000000000000000000e+00 9.000000000000000000e+00 4.000000000000000000e+00 0.000000000000000000e+00 1.000000000000000000e+00
5.480000000000000426e+00 3.000000000000000000e+00 9.740000000000000213e+00 4.000000000000000000e+00 0.000000000000000000e+00 1.000000000000000000e+00
6.400000000000000355e+00 3.000000000000000000e+00 1.051999999999999957e+01 4.000000000000000000e+00 6.800000000000000488e-01 1.000000000000000000e+00
6.000000000000000000e+00 3.000000000000000000e+00 1.200000000000000000e+01 4.000000000000000000e+00 1.000000000000000000e+00 1.000000000000000000e+00
2.200000000000000000e+01 6.003999999999999915e+01 2.900000000000000000e+01 2.528000000000000114e+01 1.100000000000000000e+01 2.483999999999999986e+01
2.114000000000000057e+01 5.603999999999999915e+01 2.957999999999999829e+01 2.394000000000000128e+01 1.100000000000000000e+01 2.546000000000000085e+01
2.000000000000000000e+01 5.028000000000000114e+01 3.000000000000000000e+01 2.394000000000000128e+01 1.100000000000000000e+01 2.573999999999999844e+01
2.012000000000000099e+01 4.667999999999999972e+01 3.000000000000000000e+01 2.417999999999999972e+01 1.100000000000000000e+01 2.503999999999999915e+01
1.971999999999999886e+01 4.350000000000000000e+01 3.016000000000000014e+01 2.400000000000000000e+01 1.100000000000000000e+01 2.464000000000000057e+01
1.710000000000000142e+01 3.746000000000000085e+01 2.850000000000000000e+01 2.378000000000000114e+01 1.011999999999999922e+01 2.339999999999999858e+01
1.600000000000000000e+01 3.550000000000000000e+01 2.635999999999999943e+01 2.398000000000000043e+01 1.000000000000000000e+01 2.378000000000000114e+01
1.730000000000000071e+01 3.510000000000000142e+01 2.580000000000000071e+01 2.396000000000000085e+01 1.000000000000000000e+01 2.450000000000000000e+01
1.742000000000000171e+01 3.543999999999999773e+01 2.500000000000000000e+01 2.385999999999999943e+01 1.000000000000000000e+01 2.455999999999999872e+01
1.700000000000000000e+01 3.478000000000000114e+01 2.467999999999999972e+01 2.200000000000000000e+01 9.480000000000000426e+00 2.400000000000000000e+01
1.698000000000000043e+01 3.421999999999999886e+01 2.433999999999999986e+01 2.053999999999999915e+01 9.000000000000000000e+00 2.400000000000000000e+01
1.648000000000000043e+01 3.511999999999999744e+01 2.500000000000000000e+01 2.100000000000000000e+01 9.000000000000000000e+00 2.400000000000000000e+01
1.673999999999999844e+01 3.567999999999999972e+01 2.600000000000000000e+01 1.980000000000000071e+01 8.560000000000000497e+00 2.400000000000000000e+01
1.626000000000000156e+01 3.600000000000000000e+01 2.600000000000000000e+01 1.900000000000000000e+01 8.000000000000000000e+00 2.412000000000000099e+01
1.673999999999999844e+01 3.806000000000000227e+01 2.539999999999999858e+01 1.939999999999999858e+01 8.779999999999999361e+00 2.485999999999999943e+01
1.700000000000000000e+01 3.815999999999999659e+01 2.651999999999999957e+01 2.042000000000000171e+01 9.000000000000000000e+00 2.562000000000000099e+01
1.687999999999999901e+01 3.852000000000000313e+01 2.601999999999999957e+01 2.051999999999999957e+01 9.000000000000000000e+00 2.501999999999999957e+01
1.517999999999999972e+01 3.900000000000000000e+01 2.600000000000000000e+01 2.000000000000000000e+01 9.000000000000000000e+00 2.414000000000000057e+01
1.483999999999999986e+01 3.900000000000000000e+01 2.600000000000000000e+01 2.000000000000000000e+01 9.000000000000000000e+00 2.300000000000000000e+01
1.500000000000000000e+01 3.900000000000000000e+01 2.560000000000000142e+01 1.950000000000000000e+01 9.000000000000000000e+00 2.266000000000000014e+01
1.408000000000000007e+01 3.900000000000000000e+01 2.500000000000000000e+01 1.900000000000000000e+01 9.000000000000000000e+00 2.180000000000000071e+01
1.400000000000000000e+01 3.800000000000000000e+01 2.403999999999999915e+01 1.900000000000000000e+01 9.000000000000000000e+00 2.035999999999999943e+01
1.325999999999999979e+01 3.582000000000000028e+01 2.255999999999999872e+01 1.882000000000000028e+01 9.000000000000000000e+00 1.969999999999999929e+01
1.300000000000000000e+01 3.464000000000000057e+01 2.200000000000000000e+01 1.733999999999999986e+01 9.000000000000000000e+00 1.912000000000000099e+01
1.317999999999999972e+01 3.317999999999999972e+01 2.200000000000000000e+01 1.694000000000000128e+01 8.859999999999999432e+00 1.996000000000000085e+01
1.400000000000000000e+01 3.407999999999999829e+01 2.112000000000000099e+01 1.553999999999999915e+01 8.000000000000000000e+00 1.921999999999999886e+01
1.400000000000000000e+01 3.464000000000000057e+01 2.000000000000000000e+01 1.500000000000000000e+01 8.000000000000000000e+00 1.985999999999999943e+01
1.400000000000000000e+01 3.538000000000000256e+01 2.000000000000000000e+01 1.525999999999999979e+01 8.140000000000000568e+00 2.000000000000000000e+01
1.482000000000000028e+01 3.600000000000000000e+01 2.100000000000000000e+01 1.600000000000000000e+01 9.000000000000000000e+00 2.001999999999999957e+01
1.567999999999999972e+01 3.856000000000000227e+01 2.012000000000000099e+01 1.669999999999999929e+01 9.019999999999999574e+00 2.100000000000000000e+01
1.650000000000000000e+01 4.228000000000000114e+01 2.069999999999999929e+01 1.700000000000000000e+01 1.000000000000000000e+01 2.100000000000000000e+01
1.721999999999999886e+01 4.360000000000000142e+01 2.094000000000000128e+01 1.700000000000000000e+01 9.099999999999999645e+00 2.119999999999999929e+01
1.800000000000000000e+01 4.547999999999999687e+01 2.100000000000000000e+01 1.700000000000000000e+01 9.000000000000000000e+00 2.100000000000000000e+01
1.737999999999999901e+01 4.600000000000000000e+01 2.112000000000000099e+01 1.728000000000000114e+01 9.339999999999999858e+00 2.010000000000000142e+01
1.685999999999999943e+01 4.596000000000000085e+01 2.094000000000000128e+01 1.700000000000000000e+01 9.099999999999999645e+00 1.823999999999999844e+01
1.600000000000000000e+01 4.479999999999999716e+01 2.100000000000000000e+01 1.601999999999999957e+01 9.000000000000000000e+00 1.717999999999999972e+01
1.687999999999999901e+01 4.553999999999999915e+01 2.114000000000000057e+01 1.600000000000000000e+01 9.000000000000000000e+00 1.600000000000000000e+01
1.678000000000000114e+01 4.379999999999999716e+01 2.100000000000000000e+01 1.548000000000000043e+01 8.939999999999999503e+00 1.517999999999999972e+01
1.657999999999999829e+01 4.400000000000000000e+01 2.026000000000000156e+01 1.419999999999999929e+01 8.000000000000000000e+00 1.490000000000000036e+01
1.575999999999999979e+01 4.247999999999999687e+01 2.110000000000000142e+01 1.500000000000000000e+01 8.000000000000000000e+00 1.340000000000000036e+01
5.000000000000000000e+00 5.000000000000000000e+00 1.851999999999999957e+01 6.000000000000000000e+00 2.000000000000000000e+00 1.000000000000000000e+00
5.000000000000000000e+00 5.000000000000000000e+00 1.864000000000000057e+01 6.360000000000000320e+00 2.000000000000000000e+00 1.000000000000000000e+00
5.480000000000000426e+00 5.620000000000000107e+00 1.778000000000000114e+01 6.179999999999999716e+00 2.339999999999999858e+00 1.000000000000000000e+00
6.000000000000000000e+00 6.000000000000000000e+00 1.733999999999999986e+01 6.540000000000000036e+00 2.220000000000000195e+00 1.000000000000000000e+00
6.000000000000000000e+00 6.000000000000000000e+00 1.767999999999999972e+01 6.400000000000000355e+00 2.000000000000000000e+00 1.000000000000000000e+00
6.000000000000000000e+00 6.000000000000000000e+00 1.800000000000000000e+01 6.080000000000000071e+00 2.000000000000000000e+00 1.000000000000000000e+00
6.000000000000000000e+00 6.000000000000000000e+00 1.730000000000000071e+01 6.000000000000000000e+00 2.000000000000000000e+00 1.000000000000000000e+00
6.139999999999999680e+00 6.000000000000000000e+00 1.700000000000000000e+01 6.000000000000000000e+00 2.000000000000000000e+00 1.000000000000000000e+00
6.639999999999999680e+00 6.000000000000000000e+00 1.748000000000000043e+01 6.000000000000000000e+00 2.000000000000000000e+00 1.000000000000000000e+00
6.000000000000000000e+00 6.000000000000000000e+00 1.800000000000000000e+01 6.000000000000000000e+00 2.000000000000000000e+00 1.000000000000000000e+00
6.000000000000000000e+00 6.000000000000000000e+00 1.810000000000000142e+01 6.000000000000000000e+00 2.000000000000000000e+00 1.000000000000000000e+00
6.679999999999999716e+00 6.000000000000000000e+00 1.832000000000000028e+01 5.820000000000000284e+00 2.000000000000000000e+00 1.000000000000000000e+00
6.120000000000000107e+00 5.559999999999999609e+00 1.800000000000000000e+01 6.000000000000000000e+00 2.000000000000000000e+00 1.000000000000000000e+00
6.000000000000000000e+00 4.959999999999999964e+00 1.717999999999999972e+01 6.519999999999999574e+00 2.000000000000000000e+00 1.000000000000000000e+00
5.580000000000000071e+00 5.000000000000000000e+00 1.692000000000000171e+01 6.620000000000000107e+00 2.000000000000000000e+00 1.000000000000000000e+00
6.000000000000000000e+00 5.679999999999999716e+00 1.600000000000000000e+01 7.000000000000000000e+00 2.000000000000000000e+00 1.000000000000000000e+00
5.099999999999999645e+00 6.000000000000000000e+00 1.600000000000000000e+01 7.000000000000000000e+00 2.000000000000000000e+00 1.000000000000000000e+00
5.799999999999999822e+00 6.000000000000000000e+00 1.600000000000000000e+01 7.000000000000000000e+00 2.000000000000000000e+00 1.000000000000000000e+00
5.000000000000000000e+00 6.000000000000000000e+00 1.630000000000000071e+01 7.000000000000000000e+00 2.000000000000000000e+00 1.000000000000000000e+00
5.860000000000000320e+00 6.000000000000000000e+00 1.590000000000000036e+01 7.000000000000000000e+00 2.000000000000000000e+00 1.000000000000000000e+00
6.000000000000000000e+00 6.000000000000000000e+00 1.559999999999999964e+01 6.780000000000000249e+00 2.000000000000000000e+00 1.000000000000000000e+00
6.000000000000000000e+00 6.000000000000000000e+00 1.496000000000000085e+01 6.000000000000000000e+00 2.000000000000000000e+00 1.000000000000000000e+00
6.000000000000000000e+00 6.000000000000000000e+00 1.500000000000000000e+01 6.000000000000000000e+00 2.000000000000000000e+00 1.000000000000000000e+00
6.000000000000000000e+00 6.000000000000000000e+00 1.500000000000000000e+01 5.519999999999999574e+00 2.000000000000000000e+00 1.000000000000000000e+00
6.000000000000000000e+00 6.000000000000000000e+00 1.553999999999999915e+01 6.000000000000000000e+00 2.000000000000000000e+00 1.000000000000000000e+00
6.000000000000000000e+00 5.500000000000000000e+00 1.591999999999999993e+01 5.940000000000000391e+00 2.000000000000000000e+00 1.000000000000000000e+00
6.160000000000000142e+00 5.000000000000000000e+00 1.600000000000000000e+01 6.000000000000000000e+00 2.000000000000000000e+00 1.000000000000000000e+00
6.000000000000000000e+00 5.160000000000000142e+00 1.598000000000000043e+01 6.000000000000000000e+00 2.000000000000000000e+00 1.000000000000000000e+00
6.000000000000000000e+00 5.000000000000000000e+00 1.548000000000000043e+01 6.000000000000000000e+00 2.000000000000000000e+00 1.000000000000000000e+00
6.000000000000000000e+00 5.000000000000000000e+00 1.500000000000000000e+01 6.000000000000000000e+00 2.000000000000000000e+00 1.000000000000000000e+00
6.000000000000000000e+00 5.000000000000000000e+00 1.500000000000000000e+01 5.339999999999999858e+00 1.360000000000000098e+00 1.000000000000000000e+00
6.000000000000000000e+00 5.000000000000000000e+00 1.496000000000000085e+01 5.000000000000000000e+00 1.100000000000000089e+00 1.000000000000000000e+00
6.000000000000000000e+00 5.000000000000000000e+00 1.493999999999999950e+01 5.000000000000000000e+00 2.000000000000000000e+00 1.000000000000000000e+00
6.000000000000000000e+00 5.000000000000000000e+00 1.500000000000000000e+01 5.000000000000000000e+00 2.000000000000000000e+00 1.000000000000000000e+00
6.000000000000000000e+00 5.000000000000000000e+00 1.500000000000000000e+01 5.000000000000000000e+00 2.000000000000000000e+00 1.000000000000000000e+00
6.000000000000000000e+00 5.000000000000000000e+00 1.488000000000000078e+01 5.000000000000000000e+00 1.659999999999999920e+00 1.000000000000000000e+00
6.000000000000000000e+00 5.000000000000000000e+00 1.417999999999999972e+01 4.200000000000000178e+00 1.000000000000000000e+00 1.000000000000000000e+00
6.000000000000000000e+00 4.360000000000000320e+00 1.432000000000000028e+01 4.599999999999999645e+00 1.000000000000000000e+00 1.000000000000000000e+00
6.000000000000000000e+00 4.639999999999999680e+00 1.400000000000000000e+01 4.879999999999999893e+00 1.939999999999999947e+00 1.000000000000000000e+00
6.000000000000000000e+00 4.519999999999999574e+00 1.406000000000000050e+01 5.000000000000000000e+00 2.000000000000000000e+00 1.000000000000000000e+00
2.200000000000000000e+01 6.160000000000000142e+01 2.300000000000000000e+01 2.300000000000000000e+01 1.100000000000000000e+01 2.455999999999999872e+01
2.160000000000000142e+01 6.029999999999999716e+01 2.300000000000000000e+01 2.300000000000000000e+01 1.100000000000000000e+01 2.396000000000000085e+01
1.942000000000000171e+01 5.834000000000000341e+01 2.300000000000000000e+01 2.278000000000000114e+01 1.088000000000000078e+01 2.200000000000000000e+01
1.900000000000000000e+01 5.550000000000000000e+01 2.300000000000000000e+01 2.203999999999999915e+01 1.000000000000000000e+01 2.251999999999999957e+01
1.862000000000000099e+01 5.074000000000000199e+01 2.042000000000000171e+01 2.233999999999999986e+01 1.000000000000000000e+01 2.096000000000000085e+01
1.767999999999999972e+01 4.239999999999999858e+01 1.998000000000000043e+01 2.326000000000000156e+01 1.000000000000000000e+01 2.157999999999999829e+01
1.787999999999999901e+01 4.228000000000000114e+01 2.007999999999999829e+01 2.314000000000000057e+01 1.027999999999999936e+01 2.200000000000000000e+01
1.716000000000000014e+01 4.056000000000000227e+01 2.112000000000000099e+01 2.446000000000000085e+01 1.100000000000000000e+01 2.351999999999999957e+01
1.796000000000000085e+01 4.167999999999999972e+01 2.182000000000000028e+01 2.492000000000000171e+01 1.100000000000000000e+01 2.394000000000000128e+01
1.742000000000000171e+01 4.417999999999999972e+01 2.226000000000000156e+01 2.642000000000000171e+01 1.153999999999999915e+01 2.387999999999999901e+01
1.828000000000000114e+01 4.806000000000000227e+01 2.269999999999999929e+01 2.800000000000000000e+01 1.200000000000000000e+01 2.366000000000000014e+01
1.900000000000000000e+01 5.084000000000000341e+01 2.267999999999999972e+01 2.800000000000000000e+01 1.200000000000000000e+01 2.357999999999999829e+01
1.950000000000000000e+01 5.243999999999999773e+01 2.319999999999999929e+01 2.805999999999999872e+01 1.200000000000000000e+01 2.392000000000000171e+01
2.000000000000000000e+01 5.329999999999999716e+01 2.600000000000000000e+01 2.951999999999999957e+01 1.283999999999999986e+01 2.303999999999999915e+01
2.000000000000000000e+01 5.400000000000000000e+01 2.600000000000000000e+01 3.057999999999999829e+01 1.400000000000000000e+01 2.278000000000000114e+01
1.996000000000000085e+01 5.447999999999999687e+01 2.600000000000000000e+01 3.157999999999999829e+01 1.400000000000000000e+01 2.205999999999999872e+01
1.985999999999999943e+01 5.661999999999999744e+01 2.571999999999999886e+01 3.189999999999999858e+01 1.400000000000000000e+01 2.182000000000000028e+01
1.900000000000000000e+01 5.603999999999999915e+01 2.526000000000000156e+01 3.100000000000000000e+01 1.400000000000000000e+01 1.946000000000000085e+01
1.900000000000000000e+01 5.646000000000000085e+01 2.500000000000000000e+01 3.100000000000000000e+01 1.400000000000000000e+01 2.000000000000000000e+01
1.900000000000000000e+01 5.529999999999999716e+01 2.464000000000000057e+01 2.930000000000000071e+01 1.358000000000000007e+01 1.930000000000000071e+01
1.889999999999999858e+01 5.279999999999999716e+01 2.500000000000000000e+01 2.932000000000000028e+01 1.400000000000000000e+01 1.900000000000000000e+01
1.850000000000000000e+01 5.128000000000000114e+01 2.500000000000000000e+01 3.000000000000000000e+01 1.400000000000000000e+01 1.923999999999999844e+01
2.048000000000000043e+01 5.056000000000000227e+01 2.576000000000000156e+01 2.939999999999999858e+01 1.400000000000000000e+01 1.871999999999999886e+01
2.064000000000000057e+01 5.053999999999999915e+01 2.605999999999999872e+01 2.914000000000000057e+01 1.327999999999999936e+01 1.896000000000000085e+01
2.100000000000000000e+01 5.120000000000000284e+01 2.800000000000000000e+01 2.723999999999999844e+01 1.203999999999999915e+01 1.921999999999999886e+01
2.094000000000000128e+01 5.010000000000000142e+01 2.900000000000000000e+01 2.535999999999999943e+01 1.159999999999999964e+01 1.926000000000000156e+01
2.012000000000000099e+01 4.788000000000000256e+01 2.900000000000000000e+01 2.500000000000000000e+01 1.193999999999999950e+01 2.051999999999999957e+01
2.000000000000000000e+01 4.657999999999999829e+01 3.017999999999999972e+01 2.585999999999999943e+01 1.200000000000000000e+01 2.098000000000000043e+01
1.998000000000000043e+01 4.493999999999999773e+01 3.082000000000000028e+01 2.600000000000000000e+01 1.172000000000000064e+01 2.100000000000000000e+01
1.900000000000000000e+01 4.239999999999999858e+01 3.039999999999999858e+01 2.582000000000000028e+01 1.100000000000000000e+01 2.100000000000000000e+01
1.976000000000000156e+01 4.256000000000000227e+01 3.012000000000000099e+01 2.505999999999999872e+01 1.100000000000000000e+01 2.160000000000000142e+01
2.000000000000000000e+01 4.200000000000000000e+01 3.100000000000000000e+01 2.421999999999999886e+01 1.100000000000000000e+01 2.200000000000000000e+01
1.885999999999999943e+01 4.064000000000000057e+01 3.005999999999999872e+01 2.396000000000000085e+01 1.100000000000000000e+01 2.262000000000000099e+01
2.071999999999999886e+01 4.379999999999999716e+01 2.816000000000000014e+01 2.303999999999999915e+01 1.100000000000000000e+01 2.300000000000000000e+01
2.235999999999999943e+01 4.434000000000000341e+01 2.796000000000000085e+01 2.476000000000000156e+01 1.182000000000000028e+01 2.400000000000000000e+01
2.300000000000000000e+01 4.528000000000000114e+01 2.900000000000000000e+01 2.505999999999999872e+01 1.200000000000000000e+01 2.392000000000000171e+01
2.387999999999999901e+01 4.535999999999999943e+01 2.900000000000000000e+01 2.555999999999999872e+01 1.200000000000000000e+01 2.300000000000000000e+01
2.400000000000000000e+01 4.520000000000000284e+01 2.801999999999999957e+01 2.528000000000000114e+01 1.200000000000000000e+01 2.400000000000000000e+01
2.400000000000000000e+01 4.565999999999999659e+01 2.826000000000000156e+01 2.632000000000000028e+01 1.200000000000000000e+01 2.507999999999999829e+01
2.403999999999999915e+01 4.700000000000000000e+01 2.900000000000000000e+01 2.735999999999999943e+01 1.200000000000000000e+01 2.600000000000000000e+01
7.219999999999999751e+00 1.164000000000000057e+01 4.519999999999999574e+00 5.660000000000000142e+00 1.840000000000000080e+00 4.740000000000000213e+00
8.000000000000000000e+00 1.642000000000000171e+01 6.000000000000000000e+00 7.440000000000000391e+00 2.479999999999999982e+00 6.639999999999999680e+00
9.220000000000000639e+00 2.544000000000000128e+01 7.120000000000000107e+00 8.939999999999999503e+00 3.459999999999999964e+00 8.220000000000000639e+00
1.011999999999999922e+01 3.035999999999999943e+01 9.539999999999999147e+00 1.085999999999999943e+01 4.959999999999999964e+00 9.800000000000000711e+00
1.241999999999999993e+01 4.053999999999999915e+01 1.124000000000000021e+01 1.350000000000000000e+01 5.900000000000000355e+00 1.332000000000000028e+01
1.300000000000000000e+01 4.615999999999999659e+01 1.430000000000000071e+01 1.572000000000000064e+01 6.799999999999999822e+00 1.500000000000000000e+01
1.398000000000000043e+01 4.971999999999999886e+01 1.575999999999999979e+01 1.685999999999999943e+01 7.059999999999999609e+00 1.596000000000000085e+01
1.519999999999999929e+01 5.182000000000000028e+01 1.746000000000000085e+01 1.923999999999999844e+01 8.000000000000000000e+00 1.716000000000000014e+01
1.989999999999999858e+01 5.861999999999999744e+01 1.817999999999999972e+01 2.069999999999999929e+01 9.080000000000000071e+00 1.830000000000000071e+01
2.187999999999999901e+01 6.174000000000000199e+01 1.919999999999999929e+01 2.200000000000000000e+01 1.000000000000000000e+01 1.942000000000000171e+01
2.344000000000000128e+01 6.487999999999999545e+01 2.066000000000000014e+01 2.339999999999999858e+01 1.072000000000000064e+01 2.100000000000000000e+01
2.589999999999999858e+01 7.537999999999999545e+01 2.139999999999999858e+01 2.476000000000000156e+01 1.109999999999999964e+01 2.328000000000000114e+01
2.785999999999999943e+01 8.904000000000000625e+01 2.339999999999999858e+01 2.669999999999999929e+01 1.200000000000000000e+01 2.571999999999999886e+01
3.100000000000000000e+01 1.017800000000000011e+02 2.400000000000000000e+01 2.700000000000000000e+01 1.211999999999999922e+01 2.855999999999999872e+01
3.246000000000000085e+01 1.090999999999999943e+02 2.483999999999999986e+01 2.700000000000000000e+01 1.293999999999999950e+01 2.896000000000000085e+01
3.417999999999999972e+01 1.154200000000000017e+02 2.344000000000000128e+01 2.737999999999999901e+01 1.293999999999999950e+01 3.064000000000000057e+01
3.547999999999999687e+01 1.197600000000000051e+02 2.400000000000000000e+01 2.826000000000000156e+01 1.300000000000000000e+01 3.100000000000000000e+01
3.656000000000000227e+01 1.242600000000000051e+02 2.385999999999999943e+01 2.771999999999999886e+01 1.300000000000000000e+01 3.253999999999999915e+01
3.525999999999999801e+01 1.260199999999999960e+02 2.400000000000000000e+01 2.785999999999999943e+01 1.248000000000000043e+01 3.338000000000000256e+01
3.500000000000000000e+01 1.285600000000000023e+02 2.400000000000000000e+01 2.717999999999999972e+01 1.264000000000000057e+01 3.400000000000000000e+01
3.524000000000000199e+01 1.326599999999999966e+02 2.364000000000000057e+01 2.651999999999999957e+01 1.300000000000000000e+01 3.400000000000000000e+01
3.497999999999999687e+01 1.299000000000000057e+02 2.394000000000000128e+01 2.550000000000000000e+01 1.377999999999999936e+01 3.285999999999999943e+01
3.414000000000000057e+01 1.249399999999999977e+02 2.301999999999999957e+01 2.333999999999999986e+01 1.400000000000000000e+01 3.142000000000000171e+01
3.329999999999999716e+01 1.210199999999999960e+02 2.364000000000000057e+01 2.307999999999999829e+01 1.400000000000000000e+01 2.978000000000000114e+01
3.311999999999999744e+01 1.203400000000000034e+02 2.394000000000000128e+01 2.300000000000000000e+01 1.443999999999999950e+01 2.971999999999999886e+01
3.234000000000000341e+01 1.190999999999999943e+02 2.592000000000000171e+01 2.232000000000000028e+01 1.425999999999999979e+01 2.819999999999999929e+01
3.221999999999999886e+01 1.230799999999999983e+02 2.735999999999999943e+01 2.100000000000000000e+01 1.424000000000000021e+01 2.800000000000000000e+01
3.235999999999999943e+01 1.249399999999999977e+02 2.846000000000000085e+01 2.100000000000000000e+01 1.500000000000000000e+01 2.648000000000000043e+01
3.328000000000000114e+01 1.334000000000000057e+02 2.901999999999999957e+01 2.096000000000000085e+01 1.564000000000000057e+01 2.483999999999999986e+01
3.317999999999999972e+01 1.363600000000000136e+02 3.000000000000000000e+01 2.132000000000000028e+01 1.605999999999999872e+01 2.333999999999999986e+01
3.317999999999999972e+01 1.333000000000000114e+02 3.030000000000000071e+01 2.142000000000000171e+01 1.600000000000000000e+01 2.300000000000000000e+01
3.352000000000000313e+01 1.340399999999999920e+02 3.000000000000000000e+01 2.128000000000000114e+01 1.522000000000000064e+01 2.300000000000000000e+01
3.292000000000000171e+01 1.326599999999999966e+02 3.000000000000000000e+01 2.155999999999999872e+01 1.498000000000000043e+01 2.239999999999999858e+01
3.220000000000000284e+01 1.324399999999999977e+02 2.942000000000000171e+01 2.132000000000000028e+01 1.400000000000000000e+01 2.169999999999999929e+01
3.100000000000000000e+01 1.280999999999999943e+02 2.998000000000000043e+01 2.042000000000000171e+01 1.327999999999999936e+01 2.007999999999999829e+01
3.110000000000000142e+01 1.249000000000000057e+02 2.919999999999999929e+01 2.105999999999999872e+01 1.327999999999999936e+01 2.017999999999999972e+01
3.151999999999999957e+01 1.230000000000000000e+02 2.846000000000000085e+01 2.200000000000000000e+01 1.375999999999999979e+01 2.183999999999999986e+01
3.160000000000000142e+01 1.250199999999999960e+02 2.812000000000000099e+01 2.289999999999999858e+01 1.338000000000000078e+01 2.282000000000000028e+01
3.185999999999999943e+01 1.230600000000000023e+02 3.176000000000000156e+01 2.366000000000000014e+01 1.291999999999999993e+01 2.471999999999999886e+01
3.456000000000000227e+01 1.268799999999999955e+02 3.446000000000000085e+01 2.407999999999999829e+01 1.200000000000000000e+01 2.828000000000000114e+01
1.600000000000000000e+01 5.000000000000000000e+00 2.000000000000000000e+00 2.580000000000000071e+00 1.000000000000000000e+00 3.000000000000000000e+00
1.548000000000000043e+01 4.879999999999999893e+00 2.000000000000000000e+00 2.000000000000000000e+00 1.000000000000000000e+00 2.020000000000000018e+00
1.500000000000000000e+01 4.000000000000000000e+00 2.000000000000000000e+00 2.000000000000000000e+00 9.599999999999999645e-01 2.000000000000000000e+00
1.401999999999999957e+01 4.000000000000000000e+00 2.000000000000000000e+00 2.000000000000000000e+00 0.000000000000000000e+00 2.000000000000000000e+00
1.390000000000000036e+01 4.000000000000000000e+00 2.000000000000000000e+00 2.000000000000000000e+00 0.000000000000000000e+00 2.000000000000000000e+00
1.303999999999999915e+01 4.000000000000000000e+00 2.000000000000000000e+00 2.000000000000000000e+00 0.000000000000000000e+00 2.000000000000000000e+00
1.211999999999999922e+01 4.000000000000000000e+00 2.000000000000000000e+00 2.000000000000000000e+00 0.000000000000000000e+00 1.219999999999999973e+00
1.156000000000000050e+01 4.000000000000000000e+00 2.000000000000000000e+00 2.000000000000000000e+00 0.000000000000000000e+00 1.000000000000000000e+00
1.100000000000000000e+01 3.979999999999999982e+00 2.000000000000000000e+00 2.000000000000000000e+00 0.000000000000000000e+00 1.000000000000000000e+00
1.100000000000000000e+01 4.000000000000000000e+00 2.000000000000000000e+00 2.000000000000000000e+00 0.000000000000000000e+00 1.000000000000000000e+00
1.085999999999999943e+01 4.000000000000000000e+00 2.000000000000000000e+00 2.000000000000000000e+00 0.000000000000000000e+00 1.000000000000000000e+00
1.100000000000000000e+01 4.000000000000000000e+00 2.000000000000000000e+00 2.000000000000000000e+00 0.000000000000000000e+00 1.000000000000000000e+00
1.088000000000000078e+01 4.000000000000000000e+00 2.000000000000000000e+00 2.000000000000000000e+00 0.000000000000000000e+00 1.000000000000000000e+00
1.091999999999999993e+01 4.000000000000000000e+00 2.000000000000000000e+00 2.000000000000000000e+00 0.000000000000000000e+00 1.000000000000000000e+00
1.048000000000000043e+01 4.000000000000000000e+00 2.000000000000000000e+00 2.000000000000000000e+00 0.000000000000000000e+00 1.000000000000000000e+00
1.075999999999999979e+01 4.000000000000000000e+00 2.000000000000000000e+00 2.000000000000000000e+00 0.000000000000000000e+00 1.000000000000000000e+00
1.100000000000000000e+01 4.000000000000000000e+00 2.000000000000000000e+00 2.000000000000000000e+00 0.000000000000000000e+00 1.000000000000000000e+00
1.100000000000000000e+01 4.000000000000000000e+00 2.000000000000000000e+00 2.000000000000000000e+00 0.000000000000000000e+00 1.000000000000000000e+00
1.100000000000000000e+01 4.000000000000000000e+00 2.000000000000000000e+00 2.000000000000000000e+00 0.000000000000000000e+00 1.000000000000000000e+00
1.058000000000000007e+01 3.459999999999999964e+00 2.000000000000000000e+00 2.000000000000000000e+00 0.000000000000000000e+00 1.000000000000000000e+00
1.051999999999999957e+01 3.000000000000000000e+00 2.000000000000000000e+00 2.000000000000000000e+00 0.000000000000000000e+00 1.000000000000000000e+00
1.075999999999999979e+01 3.000000000000000000e+00 2.000000000000000000e+00 2.000000000000000000e+00 0.000000000000000000e+00 1.000000000000000000e+00
1.033999999999999986e+01 3.000000000000000000e+00 2.000000000000000000e+00 2.000000000000000000e+00 0.000000000000000000e+00 1.000000000000000000e+00
1.033999999999999986e+01 3.000000000000000000e+00 2.000000000000000000e+00 2.000000000000000000e+00 0.000000000000000000e+00 1.000000000000000000e+00
1.090000000000000036e+01 3.000000000000000000e+00 2.000000000000000000e+00 2.000000000000000000e+00 0.000000000000000000e+00 1.000000000000000000e+00
1.006000000000000050e+01 3.000000000000000000e+00 2.000000000000000000e+00 2.000000000000000000e+00 0.000000000000000000e+00 1.000000000000000000e+00
1.003999999999999915e+01 3.000000000000000000e+00 2.000000000000000000e+00 2.000000000000000000e+00 0.000000000000000000e+00 1.000000000000000000e+00
1.000000000000000000e+01 3.000000000000000000e+00 2.000000000000000000e+00 2.000000000000000000e+00 0.000000000000000000e+00 1.000000000000000000e+00
1.083999999999999986e+01 3.379999999999999893e+00 2.000000000000000000e+00 2.000000000000000000e+00 0.000000000000000000e+00 1.000000000000000000e+00
1.100000000000000000e+01 4.000000000000000000e+00 2.000000000000000000e+00 2.000000000000000000e+00 0.000000000000000000e+00 1.000000000000000000e+00
1.100000000000000000e+01 4.000000000000000000e+00 2.000000000000000000e+00 2.000000000000000000e+00 0.000000000000000000e+00 1.000000000000000000e+00
1.080000000000000071e+01 4.000000000000000000e+00 2.000000000000000000e+00 2.000000000000000000e+00 0.000000000000000000e+00 1.000000000000000000e+00
1.000000000000000000e+01 4.000000000000000000e+00 2.000000000000000000e+00 2.000000000000000000e+00 0.000000000000000000e+00 1.000000000000000000e+00
1.000000000000000000e+01 4.000000000000000000e+00 2.000000000000000000e+00 2.000000000000000000e+00 0.000000000000000000e+00 1.000000000000000000e+00
1.000000000000000000e+01 3.879999999999999893e+00 2.000000000000000000e+00 2.000000000000000000e+00 0.000000000000000000e+00 1.000000000000000000e+00
1.000000000000000000e+01 3.359999999999999876e+00 2.000000000000000000e+00 2.000000000000000000e+00 0.000000000000000000e+00 1.000000000000000000e+00
1.000000000000000000e+01 3.919999999999999929e+00 2.000000000000000000e+00 2.000000000000000000e+00 0.000000000000000000e+00 1.000000000000000000e+00
1.000000000000000000e+01 3.100000000000000089e+00 2.000000000000000000e+00 2.000000000000000000e+00 0.000000000000000000e+00 1.000000000000000000e+00
9.679999999999999716e+00 3.000000000000000000e+00 2.000000000000000000e+00 2.000000000000000000e+00 0.000000000000000000e+00 1.000000000000000000e+00
1.000000000000000000e+01 3.000000000000000000e+00 2.000000000000000000e+00 2.000000000000000000e+00 0.000000000000000000e+00 1.000000000000000000e+00
8.000000000000000000e+00 3.000000000000000000e+00 2.000000000000000000e+00 2.000000000000000000e+00 0.000000000000000000e+00 1.000000000000000000e+00
8.000000000000000000e+00 3.000000000000000000e+00 2.000000000000000000e+00 2.000000000000000000e+00 0.000000000000000000e+00 1.000000000000000000e+00
8.000000000000000000e+00 3.000000000000000000e+00 2.000000000000000000e+00 2.000000000000000000e+00 0.000000000000000000e+00 1.000000000000000000e+00
8.000000000000000000e+00 3.000000000000000000e+00 2.000000000000000000e+00 2.000000000000000000e+00 0.000000000000000000e+00 1.000000000000000000e+00
8.000000000000000000e+00 3.000000000000000000e+00 2.000000000000000000e+00 2.000000000000000000e+00 0.000000000000000000e+00 1.000000000000000000e+00
8.000000000000000000e+00 3.000000000000000000e+00 2.000000000000000000e+00 2.000000000000000000e+00 0.000000000000000000e+00 1.000000000000000000e+00
8.000000000000000000e+00 3.000000000000000000e+00 2.000000000000000000e+00 2.000000000000000000e+00 0.000000000000000000e+00 1.000000000000000000e+00
8.000000000000000000e+00 3.000000000000000000e+00 2.000000000000000000e+00 2.000000000000000000e+00 0.000000000000000000e+00 1.000000000000000000e+00
8.000000000000000000e+00 3.000000000000000000e+00 2.000000000000000000e+00 2.000000000000000000e+00 0.000000000000000000e+00 1.000000000000000000e+00
8.000000000000000000e+00 3.000000000000000000e+00 2.000000000000000000e+00 2.000000000000000000e+00 0.000000000000000000e+00 1.000000000000000000e+00
8.000000000000000000e+00 3.000000000000000000e+00 2.000000000000000000e+00 2.000000000000000000e+00 0.000000000000000000e+00 1.000000000000000000e+00
8.099999999999999645e+00 3.000000000000000000e+00 2.000000000000000000e+00 2.000000000000000000e+00 0.000000000000000000e+00 1.000000000000000000e+00
8.359999999999999432e+00 3.000000000000000000e+00 2.000000000000000000e+00 2.000000000000000000e+00 0.000000000000000000e+00 1.000000000000000000e+00
8.000000000000000000e+00 3.000000000000000000e+00 2.000000000000000000e+00 2.000000000000000000e+00 0.000000000000000000e+00 1.000000000000000000e+00
8.000000000000000000e+00 3.000000000000000000e+00 2.000000000000000000e+00 2.000000000000000000e+00 0.000000000000000000e+00 1.000000000000000000e+00
8.000000000000000000e+00 3.000000000000000000e+00 2.000000000000000000e+00 2.000000000000000000e+00 0.000000000000000000e+00 1.000000000000000000e+00
8.000000000000000000e+00 3.000000000000000000e+00 2.000000000000000000e+00 2.000000000000000000e+00 0.000000000000000000e+00 1.000000000000000000e+00
8.099999999999999645e+00 3.000000000000000000e+00 2.000000000000000000e+00 1.459999999999999964e+00 0.000000000000000000e+00 1.000000000000000000e+00
8.000000000000000000e+00 3.000000000000000000e+00 2.000000000000000000e+00 1.000000000000000000e+00 0.000000000000000000e+00 1.000000000000000000e+00
8.000000000000000000e+00 3.000000000000000000e+00 2.000000000000000000e+00 1.040000000000000036e+00 0.000000000000000000e+00 1.000000000000000000e+00
8.000000000000000000e+00 3.000000000000000000e+00 2.000000000000000000e+00 1.080000000000000071e+00 0.000000000000000000e+00 1.000000000000000000e+00
8.000000000000000000e+00 3.000000000000000000e+00 2.000000000000000000e+00 2.000000000000000000e+00 0.000000000000000000e+00 1.000000000000000000e+00
8.000000000000000000e+00 3.000000000000000000e+00 2.000000000000000000e+00 2.000000000000000000e+00 0.000000000000000000e+00 1.000000000000000000e+00
8.000000000000000000e+00 3.000000000000000000e+00 2.000000000000000000e+00 2.000000000000000000e+00 0.000000000000000000e+00 1.000000000000000000e+00
8.000000000000000000e+00 3.000000000000000000e+00 2.000000000000000000e+00 2.000000000000000000e+00 0.000000000000000000e+00 1.000000000000000000e+00
8.000000000000000000e+00 3.000000000000000000e+00 2.000000000000000000e+00 2.000000000000000000e+00 0.000000000000000000e+00 1.000000000000000000e+00
8.000000000000000000e+00 3.000000000000000000e+00 2.000000000000000000e+00 2.000000000000000000e+00 0.000000000000000000e+00 1.000000000000000000e+00
8.000000000000000000e+00 3.000000000000000000e+00 2.000000000000000000e+00 2.000000000000000000e+00 0.000000000000000000e+00 1.000000000000000000e+00
8.000000000000000000e+00 3.000000000000000000e+00 2.000000000000000000e+00 2.000000000000000000e+00 0.000000000000000000e+00 1.000000000000000000e+00
8.000000000000000000e+00 3.000000000000000000e+00 2.000000000000000000e+00 2.000000000000000000e+00 0.000000000000000000e+00 1.000000000000000000e+00
8.000000000000000000e+00 3.000000000000000000e+00 2.000000000000000000e+00 2.000000000000000000e+00 0.000000000000000000e+00 1.000000000000000000e+00
8.000000000000000000e+00 3.000000000000000000e+00 2.000000000000000000e+00 1.340000000000000080e+00 0.000000000000000000e+00 1.000000000000000000e+00
8.000000000000000000e+00 3.000000000000000000e+00 2.000000000000000000e+00 1.840000000000000080e+00 0.000000000000000000e+00 1.000000000000000000e+00
8.000000000000000000e+00 3.000000000000000000e+00 2.000000000000000000e+00 2.000000000000000000e+00 0.000000000000000000e+00 1.000000000000000000e+00
8.000000000000000000e+00 3.000000000000000000e+00 2.000000000000000000e+00 2.000000000000000000e+00 0.000000000000000000e+00 1.000000000000000000e+00
8.000000000000000000e+00 3.000000000000000000e+00 2.000000000000000000e+00 2.000000000000000000e+00 0.000000000000000000e+00 1.000000000000000000e+00
8.000000000000000000e+00 3.000000000000000000e+00 2.000000000000000000e+00 2.000000000000000000e+00 0.000000000000000000e+00 1.000000000000000000e+00
8.000000000000000000e+00 3.000000000000000000e+00 2.000000000000000000e+00 2.000000000000000000e+00 0.000000000000000000e+00 1.000000000000000000e+00
8.000000000000000000e+00 3.000000000000000000e+00 2.000000000000000000e+00 2.000000000000000000e+00 0.000000000000000000e+00 1.000000000000000000e+00
8.000000000000000000e+00 3.000000000000000000e+00 2.000000000000000000e+00 2.000000000000000000e+00 0.000000000000000000e+00 1.000000000000000000e+00
2.500000000000000000e+01 8.000000000000000000e+00 5.496000000000000085e+01 1.200000000000000000e+01 1.000000000000000000e+01 1.300000000000000000e+01
2.455999999999999872e+01 8.000000000000000000e+00 5.417999999999999972e+01 1.117999999999999972e+01 9.779999999999999361e+00 1.280000000000000071e+01
2.596000000000000085e+01 7.620000000000000107e+00 5.353999999999999915e+01 1.100000000000000000e+01 9.439999999999999503e+00 1.300000000000000000e+01
2.466000000000000014e+01 7.000000000000000000e+00 5.185999999999999943e+01 1.038000000000000078e+01 9.000000000000000000e+00 1.300000000000000000e+01
2.503999999999999915e+01 7.000000000000000000e+00 4.821999999999999886e+01 1.006000000000000050e+01 8.519999999999999574e+00 1.283999999999999986e+01
2.301999999999999957e+01 7.000000000000000000e+00 4.715999999999999659e+01 1.000000000000000000e+01 8.000000000000000000e+00 1.367999999999999972e+01
2.307999999999999829e+01 7.000000000000000000e+00 4.753999999999999915e+01 1.000000000000000000e+01 8.000000000000000000e+00 1.400000000000000000e+01
2.335999999999999943e+01 7.000000000000000000e+00 4.628000000000000114e+01 1.000000000000000000e+01 8.000000000000000000e+00 1.400000000000000000e+01
2.400000000000000000e+01 7.000000000000000000e+00 4.775999999999999801e+01 9.939999999999999503e+00 8.000000000000000000e+00 1.503999999999999915e+01
2.389999999999999858e+01 7.000000000000000000e+00 4.853999999999999915e+01 9.599999999999999645e+00 8.000000000000000000e+00 1.583999999999999986e+01
2.400000000000000000e+01 7.000000000000000000e+00 4.896000000000000085e+01 9.359999999999999432e+00 8.000000000000000000e+00 1.600000000000000000e+01
2.382000000000000028e+01 7.000000000000000000e+00 5.225999999999999801e+01 9.000000000000000000e+00 8.359999999999999432e+00 1.600000000000000000e+01
2.200000000000000000e+01 7.000000000000000000e+00 5.296000000000000085e+01 9.000000000000000000e+00 8.119999999999999218e+00 1.687999999999999901e+01
2.142000000000000171e+01 7.000000000000000000e+00 5.400000000000000000e+01 9.000000000000000000e+00 8.000000000000000000e+00 1.630000000000000071e+01
2.101999999999999957e+01 6.959999999999999964e+00 5.400000000000000000e+01 9.000000000000000000e+00 8.000000000000000000e+00 1.600000000000000000e+01
2.100000000000000000e+01 6.240000000000000213e+00 5.443999999999999773e+01 9.000000000000000000e+00 8.000000000000000000e+00 1.559999999999999964e+01
2.100000000000000000e+01 6.440000000000000391e+00 5.560000000000000142e+01 9.000000000000000000e+00 8.000000000000000000e+00 1.517999999999999972e+01
2.100000000000000000e+01 6.419999999999999929e+00 5.565999999999999659e+01 8.640000000000000568e+00 8.000000000000000000e+00 1.600000000000000000e+01
2.026000000000000156e+01 6.000000000000000000e+00 5.453999999999999915e+01 8.800000000000000711e+00 8.000000000000000000e+00 1.569999999999999929e+01
1.901999999999999957e+01 6.000000000000000000e+00 5.338000000000000256e+01 9.000000000000000000e+00 8.080000000000000071e+00 1.500000000000000000e+01
1.928000000000000114e+01 6.000000000000000000e+00 5.488000000000000256e+01 9.000000000000000000e+00 8.000000000000000000e+00 1.500000000000000000e+01
1.900000000000000000e+01 6.000000000000000000e+00 5.132000000000000028e+01 9.000000000000000000e+00 8.000000000000000000e+00 1.485999999999999943e+01
1.900000000000000000e+01 6.000000000000000000e+00 5.114000000000000057e+01 9.000000000000000000e+00 8.000000000000000000e+00 1.411999999999999922e+01
1.930000000000000071e+01 6.000000000000000000e+00 4.965999999999999659e+01 9.000000000000000000e+00 8.000000000000000000e+00 1.400000000000000000e+01
1.842000000000000171e+01 6.000000000000000000e+00 5.078000000000000114e+01 9.000000000000000000e+00 8.000000000000000000e+00 1.400000000000000000e+01
1.919999999999999929e+01 6.000000000000000000e+00 5.047999999999999687e+01 8.679999999999999716e+00 8.000000000000000000e+00 1.396000000000000085e+01
1.873999999999999844e+01 6.000000000000000000e+00 4.893999999999999773e+01 8.000000000000000000e+00 7.040000000000000036e+00 1.300000000000000000e+01
1.901999999999999957e+01 6.000000000000000000e+00 4.878000000000000114e+01 8.000000000000000000e+00 6.839999999999999858e+00 1.198000000000000043e+01
2.153999999999999915e+01 6.000000000000000000e+00 4.850000000000000000e+01 8.000000000000000000e+00 6.040000000000000036e+00 1.100000000000000000e+01
2.251999999999999957e+01 6.000000000000000000e+00 4.720000000000000284e+01 7.000000000000000000e+00 6.000000000000000000e+00 1.100000000000000000e+01
2.214000000000000057e+01 6.000000000000000000e+00 4.339999999999999858e+01 7.000000000000000000e+00 6.000000000000000000e+00 1.061999999999999922e+01
2.166000000000000014e+01 6.000000000000000000e+00 4.285999999999999943e+01 7.000000000000000000e+00 5.459999999999999964e+00 9.960000000000000853e+00
2.096000000000000085e+01 6.000000000000000000e+00 4.103999999999999915e+01 6.559999999999999609e+00 4.360000000000000320e+00 8.919999999999999929e+00
2.000000000000000000e+01 5.200000000000000178e+00 3.847999999999999687e+01 6.000000000000000000e+00 4.000000000000000000e+00 8.000000000000000000e+00
1.923999999999999844e+01 5.000000000000000000e+00 3.479999999999999716e+01 5.620000000000000107e+00 4.000000000000000000e+00 7.679999999999999716e+00
1.800000000000000000e+01 5.000000000000000000e+00 3.214000000000000057e+01 5.000000000000000000e+00 3.259999999999999787e+00 6.000000000000000000e+00
1.723999999999999844e+01 4.820000000000000284e+00 3.069999999999999929e+01 5.000000000000000000e+00 3.879999999999999893e+00 6.000000000000000000e+00
1.600000000000000000e+01 4.000000000000000000e+00 2.923999999999999844e+01 5.000000000000000000e+00 4.000000000000000000e+00 6.000000000000000000e+00
1.101999999999999957e+01 4.000000000000000000e+00 2.939999999999999858e+01 5.000000000000000000e+00 4.000000000000000000e+00 5.780000000000000249e+00
9.400000000000000355e+00 4.000000000000000000e+00 3.123999999999999844e+01 4.719999999999999751e+00 4.000000000000000000e+00 5.940000000000000391e+00
1.700000000000000000e+01 5.000000000000000000e+00 2.000000000000000000e+00 2.819999999999999840e+00 1.780000000000000027e+00 4.000000000000000000e+00
1.666000000000000014e+01 5.000000000000000000e+00 2.000000000000000000e+00 2.259999999999999787e+00 1.000000000000000000e+00 3.319999999999999840e+00
1.666000000000000014e+01 5.000000000000000000e+00 2.000000000000000000e+00 2.020000000000000018e+00 1.000000000000000000e+00 3.000000000000000000e+00
1.558000000000000007e+01 5.000000000000000000e+00 2.000000000000000000e+00 2.180000000000000160e+00 9.000000000000000222e-01 3.000000000000000000e+00
1.300000000000000000e+01 5.000000000000000000e+00 2.000000000000000000e+00 2.000000000000000000e+00 0.000000000000000000e+00 2.040000000000000036e+00
1.259999999999999964e+01 5.000000000000000000e+00 2.000000000000000000e+00 2.000000000000000000e+00 0.000000000000000000e+00 2.000000000000000000e+00
1.300000000000000000e+01 5.000000000000000000e+00 2.000000000000000000e+00 2.000000000000000000e+00 0.000000000000000000e+00 2.000000000000000000e+00
1.314000000000000057e+01 5.000000000000000000e+00 2.000000000000000000e+00 2.000000000000000000e+00 0.000000000000000000e+00 2.000000000000000000e+00
1.300000000000000000e+01 5.000000000000000000e+00 2.000000000000000000e+00 2.000000000000000000e+00 0.000000000000000000e+00 2.000000000000000000e+00
1.300000000000000000e+01 5.000000000000000000e+00 2.000000000000000000e+00 2.000000000000000000e+00 0.000000000000000000e+00 2.000000000000000000e+00
1.369999999999999929e+01 5.000000000000000000e+00 2.000000000000000000e+00 2.000000000000000000e+00 0.000000000000000000e+00 2.560000000000000053e+00
1.322000000000000064e+01 4.000000000000000000e+00 2.000000000000000000e+00 2.000000000000000000e+00 0.000000000000000000e+00 2.160000000000000142e+00
1.382000000000000028e+01 4.000000000000000000e+00 2.000000000000000000e+00 2.000000000000000000e+00 0.000000000000000000e+00 2.439999999999999947e+00
1.300000000000000000e+01 4.000000000000000000e+00 2.000000000000000000e+00 2.000000000000000000e+00 0.000000000000000000e+00 3.000000000000000000e+00
1.300000000000000000e+01 4.000000000000000000e+00 2.000000000000000000e+00 2.000000000000000000e+00 0.000000000000000000e+00 3.000000000000000000e+00
1.298000000000000043e+01 4.000000000000000000e+00 2.000000000000000000e+00 2.000000000000000000e+00 0.000000000000000000e+00 3.000000000000000000e+00
1.238000000000000078e+01 4.000000000000000000e+00 2.000000000000000000e+00 2.000000000000000000e+00 0.000000000000000000e+00 3.000000000000000000e+00
1.241999999999999993e+01 4.000000000000000000e+00 2.000000000000000000e+00 2.000000000000000000e+00 0.000000000000000000e+00 3.000000000000000000e+00
1.174000000000000021e+01 4.000000000000000000e+00 2.000000000000000000e+00 2.000000000000000000e+00 0.000000000000000000e+00 3.000000000000000000e+00
1.251999999999999957e+01 4.000000000000000000e+00 2.000000000000000000e+00 2.000000000000000000e+00 0.000000000000000000e+00 3.000000000000000000e+00
1.206000000000000050e+01 4.000000000000000000e+00 2.000000000000000000e+00 2.000000000000000000e+00 0.000000000000000000e+00 3.000000000000000000e+00
1.200000000000000000e+01 4.000000000000000000e+00 2.000000000000000000e+00 2.000000000000000000e+00 0.000000000000000000e+00 3.000000000000000000e+00
1.106000000000000050e+01 4.000000000000000000e+00 2.000000000000000000e+00 2.000000000000000000e+00 0.000000000000000000e+00 3.000000000000000000e+00
1.100000000000000000e+01 4.000000000000000000e+00 2.000000000000000000e+00 2.000000000000000000e+00 0.000000000000000000e+00 3.000000000000000000e+00
1.174000000000000021e+01 4.000000000000000000e+00 2.000000000000000000e+00 2.000000000000000000e+00 0.000000000000000000e+00 3.000000000000000000e+00
1.164000000000000057e+01 4.000000000000000000e+00 2.000000000000000000e+00 2.000000000000000000e+00 0.000000000000000000e+00 2.660000000000000142e+00
1.188000000000000078e+01 4.000000000000000000e+00 2.000000000000000000e+00 2.000000000000000000e+00 0.000000000000000000e+00 2.419999999999999929e+00
1.100000000000000000e+01 4.000000000000000000e+00 2.000000000000000000e+00 2.000000000000000000e+00 0.000000000000000000e+00 3.000000000000000000e+00
1.174000000000000021e+01 4.000000000000000000e+00 2.000000000000000000e+00 2.000000000000000000e+00 0.000000000000000000e+00 3.000000000000000000e+00
1.040000000000000036e+01 4.000000000000000000e+00 2.000000000000000000e+00 2.000000000000000000e+00 0.000000000000000000e+00 2.859999999999999876e+00
1.058000000000000007e+01 4.000000000000000000e+00 2.000000000000000000e+00 2.000000000000000000e+00 0.000000000000000000e+00 2.000000000000000000e+00
1.067999999999999972e+01 3.540000000000000036e+00 2.000000000000000000e+00 2.000000000000000000e+00 0.000000000000000000e+00 2.000000000000000000e+00
1.033999999999999986e+01 3.540000000000000036e+00 2.000000000000000000e+00 2.000000000000000000e+00 0.000000000000000000e+00 2.000000000000000000e+00
1.080000000000000071e+01 4.000000000000000000e+00 2.000000000000000000e+00 2.000000000000000000e+00 0.000000000000000000e+00 2.000000000000000000e+00
1.000000000000000000e+01 4.000000000000000000e+00 2.000000000000000000e+00 2.000000000000000000e+00 0.000000000000000000e+00 2.000000000000000000e+00
1.000000000000000000e+01 4.000000000000000000e+00 2.000000000000000000e+00 2.000000000000000000e+00 0.000000000000000000e+00 2.000000000000000000e+00
1.000000000000000000e+01 4.000000000000000000e+00 2.000000000000000000e+00 2.000000000000000000e+00 0.000000000000000000e+00 2.359999999999999876e+00
1.000000000000000000e+01 4.000000000000000000e+00 2.000000000000000000e+00 2.000000000000000000e+00 0.000000000000000000e+00 2.000000000000000000e+00
1.000000000000000000e+01 4.000000000000000000e+00 2.000000000000000000e+00 2.000000000000000000e+00 0.000000000000000000e+00 2.000000000000000000e+00
1.000000000000000000e+01 4.000000000000000000e+00 2.000000000000000000e+00 2.000000000000000000e+00 0.000000000000000000e+00 2.000000000000000000e+00
7.000000000000000000e+00 3.000000000000000000e+00 9.060000000000000497e+00 4.000000000000000000e+00 0.000000000000000000e+00 1.000000000000000000e+00
7.000000000000000000e+00 3.000000000000000000e+00 9.000000000000000000e+00 4.000000000000000000e+00 0.000000000000000000e+00 1.000000000000000000e+00
7.000000000000000000e+00 3.000000000000000000e+00 9.000000000000000000e+00 4.000000000000000000e+00 0.000000000000000000e+00 1.000000000000000000e+00
7.559999999999999609e+00 3.000000000000000000e+00 9.039999999999999147e+00 4.000000000000000000e+00 0.000000000000000000e+00 1.000000000000000000e+00
7.120000000000000107e+00 3.000000000000000000e+00 9.320000000000000284e+00 4.000000000000000000e+00 0.000000000000000000e+00 1.000000000000000000e+00
7.620000000000000107e+00 3.000000000000000000e+00 9.300000000000000711e+00 4.000000000000000000e+00 0.000000000000000000e+00 1.000000000000000000e+00
8.000000000000000000e+00 3.000000000000000000e+00 9.539999999999999147e+00 4.000000000000000000e+00 0.000000000000000000e+00 1.000000000000000000e+00
7.599999999999999645e+00 3.000000000000000000e+00 9.279999999999999361e+00 4.000000000000000000e+00 0.000000000000000000e+00 1.000000000000000000e+00
7.919999999999999929e+00 2.620000000000000107e+00 9.000000000000000000e+00 4.000000000000000000e+00 0.000000000000000000e+00 1.000000000000000000e+00
7.839999999999999858e+00 2.000000000000000000e+00 9.000000000000000000e+00 4.000000000000000000e+00 0.000000000000000000e+00 1.000000000000000000e+00
8.000000000000000000e+00 2.000000000000000000e+00 9.460000000000000853e+00 4.000000000000000000e+00 0.000000000000000000e+00 1.000000000000000000e+00
8.000000000000000000e+00 2.000000000000000000e+00 1.000000000000000000e+01 4.000000000000000000e+00 0.000000000000000000e+00 1.000000000000000000e+00
8.000000000000000000e+00 2.000000000000000000e+00 9.839999999999999858e+00 4.000000000000000000e+00 0.000000000000000000e+00 1.000000000000000000e+00
7.200000000000000178e+00 2.000000000000000000e+00 9.660000000000000142e+00 4.000000000000000000e+00 0.000000000000000000e+00 1.000000000000000000e+00
7.679999999999999716e+00 2.000000000000000000e+00 9.000000000000000000e+00 4.000000000000000000e+00 0.000000000000000000e+00 1.000000000000000000e+00
7.000000000000000000e+00 2.000000000000000000e+00 9.000000000000000000e+00 4.000000000000000000e+00 0.000000000000000000e+00 1.000000000000000000e+00
7.000000000000000000e+00 2.000000000000000000e+00 9.000000000000000000e+00 4.000000000000000000e+00 0.000000000000000000e+00 1.000000000000000000e+00
7.000000000000000000e+00 2.000000000000000000e+00 9.000000000000000000e+00 4.000000000000000000e+00 0.000000000000000000e+00 1.000000000000000000e+00
7.120000000000000107e+00 2.000000000000000000e+00 9.000000000000000000e+00 4.000000000000000000e+00 0.000000000000000000e+00 1.000000000000000000e+00
7.419999999999999929e+00 2.000000000000000000e+00 9.000000000000000000e+00 4.000000000000000000e+00 0.000000000000000000e+00 1.000000000000000000e+00
7.919999999999999929e+00 2.000000000000000000e+00 9.000000000000000000e+00 4.000000000000000000e+00 0.000000000000000000e+00 1.000000000000000000e+00
7.620000000000000107e+00 2.000000000000000000e+00 9.000000000000000000e+00 4.000000000000000000e+00 0.000000000000000000e+00 1.000000000000000000e+00
7.719999999999999751e+00 2.000000000000000000e+00 9.000000000000000000e+00 4.000000000000000000e+00 0.000000000000000000e+00 1.000000000000000000e+00
7.860000000000000320e+00 2.000000000000000000e+00 9.000000000000000000e+00 4.000000000000000000e+00 0.000000000000000000e+00 1.000000000000000000e+00
7.000000000000000000e+00 2.000000000000000000e+00 9.000000000000000000e+00 4.000000000000000000e+00 0.000000000000000000e+00 1.000000000000000000e+00
7.000000000000000000e+00 2.000000000000000000e+00 9.019999999999999574e+00 4.000000000000000000e+00 0.000000000000000000e+00 1.000000000000000000e+00
7.000000000000000000e+00 2.000000000000000000e+00 9.779999999999999361e+00 4.000000000000000000e+00 0.000000000000000000e+00 1.000000000000000000e+00
7.000000000000000000e+00 2.000000000000000000e+00 1.000000000000000000e+01 4.000000000000000000e+00 0.000000000000000000e+00 1.000000000000000000e+00
7.000000000000000000e+00 2.000000000000000000e+00 1.000000000000000000e+01 4.000000000000000000e+00 0.000000000000000000e+00 1.000000000000000000e+00
7.000000000000000000e+00 2.000000000000000000e+00 1.014000000000000057e+01 4.000000000000000000e+00 0.000000000000000000e+00 1.000000000000000000e+00
7.000000000000000000e+00 2.000000000000000000e+00 1.100000000000000000e+01 4.000000000000000000e+00 0.000000000000000000e+00 1.000000000000000000e+00
7.740000000000000213e+00 2.000000000000000000e+00 1.027999999999999936e+01 4.000000000000000000e+00 0.000000000000000000e+00 1.000000000000000000e+00
8.000000000000000000e+00 2.000000000000000000e+00 1.080000000000000071e+01 4.000000000000000000e+00 0.000000000000000000e+00 1.000000000000000000e+00
8.000000000000000000e+00 2.839999999999999858e+00 1.000000000000000000e+01 4.000000000000000000e+00 0.000000000000000000e+00 1.000000000000000000e+00
8.000000000000000000e+00 2.379999999999999893e+00 1.000000000000000000e+01 4.000000000000000000e+00 0.000000000000000000e+00 1.000000000000000000e+00
8.699999999999999289e+00 2.600000000000000089e+00 1.000000000000000000e+01 4.000000000000000000e+00 0.000000000000000000e+00 1.000000000000000000e+00
9.000000000000000000e+00 2.720000000000000195e+00 1.000000000000000000e+01 4.799999999999999822e+00 0.000000000000000000e+00 1.000000000000000000e+00
9.000000000000000000e+00 3.000000000000000000e+00 1.000000000000000000e+01 5.000000000000000000e+00 0.000000000000000000e+00 1.000000000000000000e+00
9.000000000000000000e+00 3.000000000000000000e+00 9.400000000000000355e+00 4.980000000000000426e+00 0.000000000000000000e+00 1.000000000000000000e+00
8.740000000000000213e+00 3.000000000000000000e+00 8.859999999999999432e+00 5.000000000000000000e+00 0.000000000000000000e+00 1.000000000000000000e+00
2.230000000000000071e+01 7.000000000000000000e+00 6.728000000000000114e+01 9.000000000000000000e+00 9.000000000000000000e+00 1.169999999999999929e+01
2.262000000000000099e+01 7.000000000000000000e+00 6.393999999999999773e+01 9.000000000000000000e+00 8.980000000000000426e+00 1.198000000000000043e+01
2.344000000000000128e+01 7.019999999999999574e+00 6.210000000000000142e+01 9.000000000000000000e+00 9.000000000000000000e+00 1.253999999999999915e+01
2.216000000000000014e+01 7.160000000000000142e+00 6.171999999999999886e+01 9.000000000000000000e+00 9.000000000000000000e+00 1.238000000000000078e+01
2.269999999999999929e+01 7.440000000000000391e+00 5.850000000000000000e+01 9.720000000000000639e+00 9.000000000000000000e+00 1.269999999999999929e+01
2.157999999999999829e+01 7.320000000000000284e+00 5.582000000000000028e+01 1.000000000000000000e+01 9.000000000000000000e+00 1.482000000000000028e+01
2.178000000000000114e+01 8.000000000000000000e+00 5.667999999999999972e+01 1.009999999999999964e+01 9.000000000000000000e+00 1.773999999999999844e+01
2.251999999999999957e+01 8.000000000000000000e+00 5.721999999999999886e+01 1.082000000000000028e+01 9.000000000000000000e+00 1.800000000000000000e+01
2.285999999999999943e+01 8.000000000000000000e+00 5.967999999999999972e+01 1.083999999999999986e+01 9.000000000000000000e+00 1.869999999999999929e+01
2.332000000000000028e+01 8.000000000000000000e+00 6.006000000000000227e+01 1.100000000000000000e+01 9.619999999999999218e+00 1.980000000000000071e+01
2.450000000000000000e+01 8.000000000000000000e+00 5.982000000000000028e+01 1.100000000000000000e+01 1.000000000000000000e+01 2.010000000000000142e+01
2.401999999999999957e+01 8.000000000000000000e+00 5.967999999999999972e+01 1.140000000000000036e+01 1.000000000000000000e+01 2.100000000000000000e+01
2.382000000000000028e+01 8.000000000000000000e+00 5.964000000000000057e+01 1.200000000000000000e+01 1.000000000000000000e+01 2.100000000000000000e+01
2.507999999999999829e+01 8.000000000000000000e+00 5.815999999999999659e+01 1.200000000000000000e+01 1.000000000000000000e+01 2.100000000000000000e+01
2.967999999999999972e+01 8.500000000000000000e+00 5.832000000000000028e+01 1.216000000000000014e+01 1.000000000000000000e+01 2.085999999999999943e+01
3.261999999999999744e+01 8.759999999999999787e+00 5.832000000000000028e+01 1.300000000000000000e+01 9.820000000000000284e+00 1.953999999999999915e+01
3.411999999999999744e+01 9.080000000000000071e+00 5.700000000000000000e+01 1.300000000000000000e+01 9.000000000000000000e+00 1.732000000000000028e+01
3.653999999999999915e+01 1.000000000000000000e+01 5.646000000000000085e+01 1.338000000000000078e+01 9.000000000000000000e+00 1.700000000000000000e+01
3.770000000000000284e+01 1.000000000000000000e+01 5.492000000000000171e+01 1.400000000000000000e+01 9.000000000000000000e+00 1.603999999999999915e+01
3.902000000000000313e+01 1.061999999999999922e+01 5.435999999999999943e+01 1.400000000000000000e+01 9.000000000000000000e+00 1.511999999999999922e+01
3.988000000000000256e+01 1.100000000000000000e+01 5.417999999999999972e+01 1.400000000000000000e+01 9.000000000000000000e+00 1.483999999999999986e+01
4.100000000000000000e+01 1.100000000000000000e+01 5.597999999999999687e+01 1.359999999999999964e+01 8.359999999999999432e+00 1.300000000000000000e+01
4.174000000000000199e+01 1.100000000000000000e+01 5.496000000000000085e+01 1.301999999999999957e+01 8.000000000000000000e+00 1.300000000000000000e+01
4.228000000000000114e+01 1.100000000000000000e+01 5.710000000000000142e+01 1.314000000000000057e+01 8.000000000000000000e+00 1.300000000000000000e+01
3.993999999999999773e+01 1.100000000000000000e+01 5.647999999999999687e+01 1.300000000000000000e+01 7.599999999999999645e+00 1.232000000000000028e+01
3.775999999999999801e+01 1.053999999999999915e+01 5.614000000000000057e+01 1.203999999999999915e+01 7.000000000000000000e+00 1.267999999999999972e+01
3.817999999999999972e+01 1.000000000000000000e+01 5.532000000000000028e+01 1.200000000000000000e+01 7.000000000000000000e+00 1.200000000000000000e+01
3.570000000000000284e+01 9.539999999999999147e+00 5.332000000000000028e+01 1.119999999999999929e+01 7.000000000000000000e+00 1.200000000000000000e+01
3.429999999999999716e+01 9.000000000000000000e+00 5.314000000000000057e+01 1.100000000000000000e+01 7.000000000000000000e+00 1.200000000000000000e+01
3.275999999999999801e+01 8.539999999999999147e+00 5.188000000000000256e+01 1.038000000000000078e+01 6.799999999999999822e+00 1.133999999999999986e+01
3.187999999999999901e+01 8.039999999999999147e+00 4.989999999999999858e+01 1.000000000000000000e+01 6.000000000000000000e+00 1.100000000000000000e+01
3.180000000000000071e+01 8.320000000000000284e+00 4.770000000000000284e+01 1.000000000000000000e+01 6.000000000000000000e+00 1.100000000000000000e+01
3.051999999999999957e+01 8.000000000000000000e+00 4.797999999999999687e+01 1.000000000000000000e+01 6.000000000000000000e+00 1.100000000000000000e+01
2.832000000000000028e+01 7.200000000000000178e+00 4.607999999999999829e+01 9.259999999999999787e+00 6.000000000000000000e+00 1.098000000000000043e+01
2.771999999999999886e+01 7.000000000000000000e+00 4.585999999999999943e+01 9.000000000000000000e+00 5.139999999999999680e+00 1.100000000000000000e+01
2.669999999999999929e+01 6.919999999999999929e+00 4.471999999999999886e+01 9.000000000000000000e+00 5.000000000000000000e+00 1.067999999999999972e+01
2.337999999999999901e+01 6.000000000000000000e+00 4.275999999999999801e+01 8.359999999999999432e+00 4.700000000000000178e+00 1.000000000000000000e+01
2.133999999999999986e+01 5.780000000000000249e+00 4.146000000000000085e+01 7.419999999999999929e+00 4.000000000000000000e+00 9.560000000000000497e+00
2.032000000000000028e+01 5.000000000000000000e+00 3.784000000000000341e+01 7.000000000000000000e+00 3.299999999999999822e+00 8.220000000000000639e+00
1.907999999999999829e+01 5.000000000000000000e+00 3.584000000000000341e+01 6.240000000000000213e+00 3.000000000000000000e+00 8.000000000000000000e+00
