1.374000000000000021e+01 1.200000000000000000e+01 7.000000000000000000e+00 3.200000000000000000e+01
1.300000000000000000e+01 1.200000000000000000e+01 7.000000000000000000e+00 3.116000000000000014e+01
1.275999999999999979e+01 1.146000000000000085e+01 7.000000000000000000e+00 3.000000000000000000e+01
1.153999999999999915e+01 1.100000000000000000e+01 6.160000000000000142e+00 2.844000000000000128e+01
1.100000000000000000e+01 1.003999999999999915e+01 5.759999999999999787e+00 2.737999999999999901e+01
1.040000000000000036e+01 1.000000000000000000e+01 5.000000000000000000e+00 2.467999999999999972e+01
8.900000000000000355e+00 9.359999999999999432e+00 4.740000000000000213e+00 2.116000000000000014e+01
7.320000000000000284e+00 7.419999999999999929e+00 4.000000000000000000e+00 1.669999999999999929e+01
5.940000000000000391e+00 5.500000000000000000e+00 3.200000000000000178e+00 9.699999999999999289e+00
3.720000000000000195e+00 3.600000000000000089e+00 3.000000000000000000e+00 6.400000000000000355e+00
3.000000000000000000e+00 3.000000000000000000e+00 2.299999999999999822e+00 3.700000000000000178e+00
3.000000000000000000e+00 2.299999999999999822e+00 2.000000000000000000e+00 3.000000000000000000e+00
3.000000000000000000e+00 2.299999999999999822e+00 2.000000000000000000e+00 3.000000000000000000e+00
3.000000000000000000e+00 3.000000000000000000e+00 2.000000000000000000e+00 3.299999999999999822e+00
3.640000000000000124e+00 3.000000000000000000e+00 2.000000000000000000e+00 4.360000000000000320e+00
4.339999999999999858e+00 4.139999999999999680e+00 2.000000000000000000e+00 7.599999999999999645e+00
6.400000000000000355e+00 5.419999999999999929e+00 2.459999999999999964e+00 1.175999999999999979e+01
8.380000000000000782e+00 6.660000000000000142e+00 3.000000000000000000e+00 1.453999999999999915e+01
9.099999999999999645e+00 8.039999999999999147e+00 3.000000000000000000e+00 1.623999999999999844e+01
1.030000000000000071e+01 9.000000000000000000e+00 3.759999999999999787e+00 1.730000000000000071e+01
1.122000000000000064e+01 1.022000000000000064e+01 4.000000000000000000e+00 1.916000000000000014e+01
1.200000000000000000e+01 1.159999999999999964e+01 4.719999999999999751e+00 2.189999999999999858e+01
1.322000000000000064e+01 1.232000000000000028e+01 5.000000000000000000e+00 2.410000000000000142e+01
1.401999999999999957e+01 1.309999999999999964e+01 5.839999999999999858e+00 2.680000000000000071e+01
1.500000000000000000e+01 1.469999999999999929e+01 6.000000000000000000e+00 2.800000000000000000e+01
1.500000000000000000e+01 1.541999999999999993e+01 6.000000000000000000e+00 2.867999999999999972e+01
1.480000000000000071e+01 1.600000000000000000e+01 6.000000000000000000e+00 2.894000000000000128e+01
1.577999999999999936e+01 1.588000000000000078e+01 6.000000000000000000e+00 2.964000000000000057e+01
1.600000000000000000e+01 1.596000000000000085e+01 6.000000000000000000e+00 3.039999999999999858e+01
1.600000000000000000e+01 1.600000000000000000e+01 6.000000000000000000e+00 3.100000000000000000e+01
1.551999999999999957e+01 1.509999999999999964e+01 6.000000000000000000e+00 3.039999999999999858e+01
1.500000000000000000e+01 1.433999999999999986e+01 6.000000000000000000e+00 2.878000000000000114e+01
1.385999999999999943e+01 1.372000000000000064e+01 5.419999999999999929e+00 2.667999999999999972e+01
1.296000000000000085e+01 1.291999999999999993e+01 5.000000000000000000e+00 2.433999999999999986e+01
1.200000000000000000e+01 1.119999999999999929e+01 4.860000000000000320e+00 2.244000000000000128e+01
1.148000000000000043e+01 9.580000000000000071e+00 4.000000000000000000e+00 2.101999999999999957e+01
1.064000000000000057e+01 8.160000000000000142e+00 4.000000000000000000e+00 1.792000000000000171e+01
7.839999999999999858e+00 7.179999999999999716e+00 3.200000000000000178e+00 1.491999999999999993e+01
6.320000000000000284e+00 6.059999999999999609e+00 2.899999999999999911e+00 1.090000000000000036e+01
4.419999999999999929e+00 4.459999999999999964e+00 2.000000000000000000e+00 7.419999999999999929e+00
1.400000000000000000e+01 1.300000000000000000e+01 7.740000000000000213e+00 2.000000000000000000e+01
1.400000000000000000e+01 1.300000000000000000e+01 7.860000000000000320e+00 2.055999999999999872e+01
1.400000000000000000e+01 1.230000000000000071e+01 7.480000000000000426e+00 2.000000000000000000e+01
1.341999999999999993e+01 1.200000000000000000e+01 7.000000000000000000e+00 1.882000000000000028e+01
1.300000000000000000e+01 1.200000000000000000e+01 7.000000000000000000e+00 1.755999999999999872e+01
1.241999999999999993e+01 1.200000000000000000e+01 6.200000000000000178e+00 1.700000000000000000e+01
1.190000000000000036e+01 1.164000000000000057e+01 6.000000000000000000e+00 1.796000000000000085e+01
1.103999999999999915e+01 1.032000000000000028e+01 6.419999999999999929e+00 1.864000000000000057e+01
1.200000000000000000e+01 1.009999999999999964e+01 7.000000000000000000e+00 2.000000000000000000e+01
1.261999999999999922e+01 1.100000000000000000e+01 7.000000000000000000e+00 2.057999999999999829e+01
1.393999999999999950e+01 1.100000000000000000e+01 7.200000000000000178e+00 2.192000000000000171e+01
1.400000000000000000e+01 1.100000000000000000e+01 7.160000000000000142e+00 2.203999999999999915e+01
1.400000000000000000e+01 1.156000000000000050e+01 7.000000000000000000e+00 2.300000000000000000e+01
1.400000000000000000e+01 1.100000000000000000e+01 7.000000000000000000e+00 2.300000000000000000e+01
1.400000000000000000e+01 1.100000000000000000e+01 7.000000000000000000e+00 2.237999999999999901e+01
1.400000000000000000e+01 1.108000000000000007e+01 7.019999999999999574e+00 2.294000000000000128e+01
1.400000000000000000e+01 1.200000000000000000e+01 7.799999999999999822e+00 2.326000000000000156e+01
1.390000000000000036e+01 1.180000000000000071e+01 7.019999999999999574e+00 2.348000000000000043e+01
1.300000000000000000e+01 1.200000000000000000e+01 6.120000000000000107e+00 2.248000000000000043e+01
1.300000000000000000e+01 1.183999999999999986e+01 6.120000000000000107e+00 2.289999999999999858e+01
1.203999999999999915e+01 1.100000000000000000e+01 6.000000000000000000e+00 2.107999999999999829e+01
1.200000000000000000e+01 1.100000000000000000e+01 6.000000000000000000e+00 2.037999999999999901e+01
1.200000000000000000e+01 1.108000000000000007e+01 6.000000000000000000e+00 1.900000000000000000e+01
1.200000000000000000e+01 1.100000000000000000e+01 6.000000000000000000e+00 1.923999999999999844e+01
1.200000000000000000e+01 1.150000000000000000e+01 6.000000000000000000e+00 2.032000000000000028e+01
1.140000000000000036e+01 1.114000000000000057e+01 5.160000000000000142e+00 1.946000000000000085e+01
1.014000000000000057e+01 1.009999999999999964e+01 5.000000000000000000e+00 1.782000000000000028e+01
9.359999999999999432e+00 9.720000000000000639e+00 4.299999999999999822e+00 1.601999999999999957e+01
8.000000000000000000e+00 8.000000000000000000e+00 4.000000000000000000e+00 1.459999999999999964e+01
7.320000000000000284e+00 8.000000000000000000e+00 3.640000000000000124e+00 1.214000000000000057e+01
7.000000000000000000e+00 7.040000000000000036e+00 3.000000000000000000e+00 1.167999999999999972e+01
6.259999999999999787e+00 7.000000000000000000e+00 3.000000000000000000e+00 1.030000000000000071e+01
5.099999999999999645e+00 5.360000000000000320e+00 3.000000000000000000e+00 9.259999999999999787e+00
4.959999999999999964e+00 4.980000000000000426e+00 2.180000000000000160e+00 8.160000000000000142e+00
4.000000000000000000e+00 4.000000000000000000e+00 2.000000000000000000e+00 5.320000000000000284e+00
3.200000000000000178e+00 3.100000000000000089e+00 2.000000000000000000e+00 3.060000000000000053e+00
3.000000000000000000e+00 2.819999999999999840e+00 2.000000000000000000e+00 2.040000000000000036e+00
3.000000000000000000e+00 2.000000000000000000e+00 2.000000000000000000e+00 2.000000000000000000e+00
3.000000000000000000e+00 2.000000000000000000e+00 2.720000000000000195e+00 2.000000000000000000e+00
3.000000000000000000e+00 2.000000000000000000e+00 3.000000000000000000e+00 2.000000000000000000e+00
8.000000000000000000e+00 7.360000000000000320e+00 4.000000000000000000e+00 2.296000000000000085e+01
8.000000000000000000e+00 8.000000000000000000e+00 4.000000000000000000e+00 2.133999999999999986e+01
8.140000000000000568e+00 8.000000000000000000e+00 4.000000000000000000e+00 2.035999999999999943e+01
8.220000000000000639e+00 8.000000000000000000e+00 4.000000000000000000e+00 1.914000000000000057e+01
8.679999999999999716e+00 8.000000000000000000e+00 4.000000000000000000e+00 1.894000000000000128e+01
9.160000000000000142e+00 8.900000000000000355e+00 4.000000000000000000e+00 1.998000000000000043e+01
1.000000000000000000e+01 9.800000000000000711e+00 4.000000000000000000e+00 2.080000000000000071e+01
1.000000000000000000e+01 1.000000000000000000e+01 4.000000000000000000e+00 2.230000000000000071e+01
1.000000000000000000e+01 1.072000000000000064e+01 4.620000000000000107e+00 2.428000000000000114e+01
1.000000000000000000e+01 1.100000000000000000e+01 5.000000000000000000e+00 2.550000000000000000e+01
1.000000000000000000e+01 1.100000000000000000e+01 5.000000000000000000e+00 2.500000000000000000e+01
9.839999999999999858e+00 1.088000000000000078e+01 5.000000000000000000e+00 2.453999999999999915e+01
8.839999999999999858e+00 1.000000000000000000e+01 4.519999999999999574e+00 2.312000000000000099e+01
8.000000000000000000e+00 9.140000000000000568e+00 4.000000000000000000e+00 2.200000000000000000e+01
7.639999999999999680e+00 9.000000000000000000e+00 4.000000000000000000e+00 2.123999999999999844e+01
6.799999999999999822e+00 7.860000000000000320e+00 4.000000000000000000e+00 1.976000000000000156e+01
5.179999999999999716e+00 6.959999999999999964e+00 4.000000000000000000e+00 1.817999999999999972e+01
4.320000000000000284e+00 5.280000000000000249e+00 4.000000000000000000e+00 1.506000000000000050e+01
4.000000000000000000e+00 4.360000000000000320e+00 3.600000000000000089e+00 9.640000000000000568e+00
2.479999999999999982e+00 3.080000000000000071e+00 3.000000000000000000e+00 5.219999999999999751e+00
2.000000000000000000e+00 2.399999999999999911e+00 3.000000000000000000e+00 2.600000000000000089e+00
2.000000000000000000e+00 2.000000000000000000e+00 3.000000000000000000e+00 2.000000000000000000e+00
2.000000000000000000e+00 1.419999999999999929e+00 2.540000000000000036e+00 2.000000000000000000e+00
2.000000000000000000e+00 1.000000000000000000e+00 2.000000000000000000e+00 1.959999999999999964e+00
2.000000000000000000e+00 1.000000000000000000e+00 2.000000000000000000e+00 1.000000000000000000e+00
2.000000000000000000e+00 1.000000000000000000e+00 2.000000000000000000e+00 1.000000000000000000e+00
2.000000000000000000e+00 1.000000000000000000e+00 1.020000000000000018e+00 1.000000000000000000e+00
2.000000000000000000e+00 1.000000000000000000e+00 1.000000000000000000e+00 1.000000000000000000e+00
2.000000000000000000e+00 1.000000000000000000e+00 1.000000000000000000e+00 1.000000000000000000e+00
1.679999999999999938e+00 1.000000000000000000e+00 1.000000000000000000e+00 1.000000000000000000e+00
2.000000000000000000e+00 1.000000000000000000e+00 1.000000000000000000e+00 1.000000000000000000e+00
1.080000000000000071e+00 1.000000000000000000e+00 1.000000000000000000e+00 1.419999999999999929e+00
1.000000000000000000e+00 1.000000000000000000e+00 1.000000000000000000e+00 2.000000000000000000e+00
1.000000000000000000e+00 1.000000000000000000e+00 1.000000000000000000e+00 2.000000000000000000e+00
1.000000000000000000e+00 1.000000000000000000e+00 1.000000000000000000e+00 2.000000000000000000e+00
1.000000000000000000e+00 1.000000000000000000e+00 1.000000000000000000e+00 2.000000000000000000e+00
1.000000000000000000e+00 1.000000000000000000e+00 1.000000000000000000e+00 2.000000000000000000e+00
1.000000000000000000e+00 1.000000000000000000e+00 1.000000000000000000e+00 2.000000000000000000e+00
1.000000000000000000e+00 1.000000000000000000e+00 1.000000000000000000e+00 2.000000000000000000e+00
1.000000000000000000e+00 1.000000000000000000e+00 1.000000000000000000e+00 1.800000000000000044e+00
9.939999999999999503e+00 1.000000000000000000e+01 3.979999999999999982e+00 1.653999999999999915e+01
9.000000000000000000e+00 9.820000000000000284e+00 3.000000000000000000e+00 1.509999999999999964e+01
9.000000000000000000e+00 9.000000000000000000e+00 3.000000000000000000e+00 1.483999999999999986e+01
8.019999999999999574e+00 8.839999999999999858e+00 3.000000000000000000e+00 1.383999999999999986e+01
7.480000000000000426e+00 8.000000000000000000e+00 3.000000000000000000e+00 1.283999999999999986e+01
6.799999999999999822e+00 7.360000000000000320e+00 2.700000000000000178e+00 1.198000000000000043e+01
5.820000000000000284e+00 6.440000000000000391e+00 2.000000000000000000e+00 1.038000000000000078e+01
4.940000000000000391e+00 5.299999999999999822e+00 2.000000000000000000e+00 8.419999999999999929e+00
3.520000000000000018e+00 3.899999999999999911e+00 2.000000000000000000e+00 6.440000000000000391e+00
2.640000000000000124e+00 2.740000000000000213e+00 1.659999999999999920e+00 4.040000000000000036e+00
2.000000000000000000e+00 2.000000000000000000e+00 1.000000000000000000e+00 3.759999999999999787e+00
2.000000000000000000e+00 2.000000000000000000e+00 1.760000000000000009e+00 3.000000000000000000e+00
2.000000000000000000e+00 1.179999999999999938e+00 1.239999999999999991e+00 2.180000000000000160e+00
2.000000000000000000e+00 1.000000000000000000e+00 1.899999999999999911e+00 2.000000000000000000e+00
2.000000000000000000e+00 1.000000000000000000e+00 2.000000000000000000e+00 2.000000000000000000e+00
2.000000000000000000e+00 1.000000000000000000e+00 2.000000000000000000e+00 2.000000000000000000e+00
2.000000000000000000e+00 1.000000000000000000e+00 1.860000000000000098e+00 2.000000000000000000e+00
2.000000000000000000e+00 1.000000000000000000e+00 1.000000000000000000e+00 1.540000000000000036e+00
1.939999999999999947e+00 1.000000000000000000e+00 1.000000000000000000e+00 1.000000000000000000e+00
1.120000000000000107e+00 1.000000000000000000e+00 1.000000000000000000e+00 1.000000000000000000e+00
1.000000000000000000e+00 1.000000000000000000e+00 1.000000000000000000e+00 1.000000000000000000e+00
1.000000000000000000e+00 1.000000000000000000e+00 1.000000000000000000e+00 1.000000000000000000e+00
1.000000000000000000e+00 1.000000000000000000e+00 1.000000000000000000e+00 1.000000000000000000e+00
1.000000000000000000e+00 1.000000000000000000e+00 1.000000000000000000e+00 1.000000000000000000e+00
1.000000000000000000e+00 1.000000000000000000e+00 1.000000000000000000e+00 1.000000000000000000e+00
1.000000000000000000e+00 1.000000000000000000e+00 1.000000000000000000e+00 1.000000000000000000e+00
1.000000000000000000e+00 1.000000000000000000e+00 1.000000000000000000e+00 1.000000000000000000e+00
1.000000000000000000e+00 1.000000000000000000e+00 1.000000000000000000e+00 1.000000000000000000e+00
1.000000000000000000e+00 1.000000000000000000e+00 1.000000000000000000e+00 1.000000000000000000e+00
1.000000000000000000e+00 1.000000000000000000e+00 1.000000000000000000e+00 1.000000000000000000e+00
1.000000000000000000e+00 1.000000000000000000e+00 1.000000000000000000e+00 1.000000000000000000e+00
1.000000000000000000e+00 1.000000000000000000e+00 1.000000000000000000e+00 1.000000000000000000e+00
1.000000000000000000e+00 1.000000000000000000e+00 1.000000000000000000e+00 1.000000000000000000e+00
1.000000000000000000e+00 1.000000000000000000e+00 1.000000000000000000e+00 1.000000000000000000e+00
1.000000000000000000e+00 1.000000000000000000e+00 1.000000000000000000e+00 1.000000000000000000e+00
1.520000000000000018e+00 1.000000000000000000e+00 1.000000000000000000e+00 1.000000000000000000e+00
1.500000000000000000e+00 1.000000000000000000e+00 1.000000000000000000e+00 1.000000000000000000e+00
2.000000000000000000e+00 1.000000000000000000e+00 1.000000000000000000e+00 1.199999999999999956e+00
2.000000000000000000e+00 1.919999999999999929e+00 1.000000000000000000e+00 3.060000000000000053e+00
2.000000000000000000e+00 2.000000000000000000e+00 1.000000000000000000e+00 4.000000000000000000e+00
6.299999999999999822e+00 5.919999999999999929e+00 2.000000000000000000e+00 1.424000000000000021e+01
5.299999999999999822e+00 4.519999999999999574e+00 2.000000000000000000e+00 1.164000000000000057e+01
4.160000000000000142e+00 3.580000000000000071e+00 1.780000000000000027e+00 9.099999999999999645e+00
2.620000000000000107e+00 3.000000000000000000e+00 1.000000000000000000e+00 7.799999999999999822e+00
2.359999999999999876e+00 2.100000000000000089e+00 1.000000000000000000e+00 3.879999999999999893e+00
3.000000000000000000e+00 2.000000000000000000e+00 1.000000000000000000e+00 2.000000000000000000e+00
3.000000000000000000e+00 2.000000000000000000e+00 1.399999999999999911e+00 2.000000000000000000e+00
3.000000000000000000e+00 2.000000000000000000e+00 1.000000000000000000e+00 2.000000000000000000e+00
3.000000000000000000e+00 2.000000000000000000e+00 1.000000000000000000e+00 2.000000000000000000e+00
3.000000000000000000e+00 2.419999999999999929e+00 1.659999999999999920e+00 3.180000000000000160e+00
4.200000000000000178e+00 3.620000000000000107e+00 2.000000000000000000e+00 5.559999999999999609e+00
5.000000000000000000e+00 4.360000000000000320e+00 2.000000000000000000e+00 8.279999999999999361e+00
5.000000000000000000e+00 5.000000000000000000e+00 2.000000000000000000e+00 9.939999999999999503e+00
5.000000000000000000e+00 5.000000000000000000e+00 2.000000000000000000e+00 1.000000000000000000e+01
5.000000000000000000e+00 5.000000000000000000e+00 2.000000000000000000e+00 1.000000000000000000e+01
5.000000000000000000e+00 5.000000000000000000e+00 2.000000000000000000e+00 1.000000000000000000e+01
5.000000000000000000e+00 5.000000000000000000e+00 2.000000000000000000e+00 1.000000000000000000e+01
5.000000000000000000e+00 5.000000000000000000e+00 2.000000000000000000e+00 1.000000000000000000e+01
5.000000000000000000e+00 5.000000000000000000e+00 2.000000000000000000e+00 1.000000000000000000e+01
5.000000000000000000e+00 5.000000000000000000e+00 2.000000000000000000e+00 9.960000000000000853e+00
4.519999999999999574e+00 4.379999999999999893e+00 2.000000000000000000e+00 1.000000000000000000e+01
5.099999999999999645e+00 4.919999999999999929e+00 2.339999999999999858e+00 1.051999999999999957e+01
6.360000000000000320e+00 6.459999999999999964e+00 3.160000000000000142e+00 1.240000000000000036e+01
7.000000000000000000e+00 8.480000000000000426e+00 4.000000000000000000e+00 1.353999999999999915e+01
7.599999999999999645e+00 9.000000000000000000e+00 4.000000000000000000e+00 1.501999999999999957e+01
8.000000000000000000e+00 9.679999999999999716e+00 4.000000000000000000e+00 1.717999999999999972e+01
8.980000000000000426e+00 1.077999999999999936e+01 4.000000000000000000e+00 1.900000000000000000e+01
9.220000000000000639e+00 1.100000000000000000e+01 4.000000000000000000e+00 2.146000000000000085e+01
1.000000000000000000e+01 1.143999999999999950e+01 4.000000000000000000e+00 2.200000000000000000e+01
1.000000000000000000e+01 1.200000000000000000e+01 4.280000000000000249e+00 2.200000000000000000e+01
1.000000000000000000e+01 1.200000000000000000e+01 4.839999999999999858e+00 2.200000000000000000e+01
1.000000000000000000e+01 1.200000000000000000e+01 4.000000000000000000e+00 2.164000000000000057e+01
9.640000000000000568e+00 1.132000000000000028e+01 4.000000000000000000e+00 2.000000000000000000e+01
9.000000000000000000e+00 9.599999999999999645e+00 3.720000000000000195e+00 1.933999999999999986e+01
9.000000000000000000e+00 9.839999999999999858e+00 3.180000000000000160e+00 1.817999999999999972e+01
8.980000000000000426e+00 9.320000000000000284e+00 3.000000000000000000e+00 1.683999999999999986e+01
7.959999999999999964e+00 8.199999999999999289e+00 3.000000000000000000e+00 1.443999999999999950e+01
7.000000000000000000e+00 7.219999999999999751e+00 3.000000000000000000e+00 1.148000000000000043e+01
7.000000000000000000e+00 7.000000000000000000e+00 2.859999999999999876e+00 9.900000000000000355e+00
6.040000000000000036e+00 6.940000000000000391e+00 2.000000000000000000e+00 8.519999999999999574e+00
