6.440000000000000391e+00 6.679999999999999716e+00 1.011999999999999922e+01 8.000000000000000000e+00 3.000000000000000000e+00 2.419999999999999929e+01
6.000000000000000000e+00 6.400000000000000355e+00 1.082000000000000028e+01 8.000000000000000000e+00 2.200000000000000178e+00 2.433999999999999986e+01
6.000000000000000000e+00 6.000000000000000000e+00 1.040000000000000036e+01 8.000000000000000000e+00 2.000000000000000000e+00 2.448000000000000043e+01
6.000000000000000000e+00 6.000000000000000000e+00 1.027999999999999936e+01 8.000000000000000000e+00 2.000000000000000000e+00 2.437999999999999901e+01
6.000000000000000000e+00 5.919999999999999929e+00 1.216000000000000014e+01 8.000000000000000000e+00 2.000000000000000000e+00 2.294000000000000128e+01
6.000000000000000000e+00 5.500000000000000000e+00 1.300000000000000000e+01 7.820000000000000284e+00 2.000000000000000000e+00 2.300000000000000000e+01
6.000000000000000000e+00 6.000000000000000000e+00 1.348000000000000043e+01 8.000000000000000000e+00 2.000000000000000000e+00 2.253999999999999915e+01
6.000000000000000000e+00 6.000000000000000000e+00 1.369999999999999929e+01 8.000000000000000000e+00 2.399999999999999911e+00 2.300000000000000000e+01
6.000000000000000000e+00 6.000000000000000000e+00 1.400000000000000000e+01 8.000000000000000000e+00 3.000000000000000000e+00 2.323999999999999844e+01
6.000000000000000000e+00 6.000000000000000000e+00 1.400000000000000000e+01 8.380000000000000782e+00 3.000000000000000000e+00 2.312000000000000099e+01
6.000000000000000000e+00 6.000000000000000000e+00 1.400000000000000000e+01 8.779999999999999361e+00 3.000000000000000000e+00 2.296000000000000085e+01
6.000000000000000000e+00 6.000000000000000000e+00 1.400000000000000000e+01 8.419999999999999929e+00 3.000000000000000000e+00 2.300000000000000000e+01
6.000000000000000000e+00 6.000000000000000000e+00 1.414000000000000057e+01 8.880000000000000782e+00 3.000000000000000000e+00 2.201999999999999957e+01
6.000000000000000000e+00 6.000000000000000000e+00 1.440000000000000036e+01 8.640000000000000568e+00 3.000000000000000000e+00 2.192000000000000171e+01
6.000000000000000000e+00 6.000000000000000000e+00 1.309999999999999964e+01 8.400000000000000355e+00 3.000000000000000000e+00 2.200000000000000000e+01
6.000000000000000000e+00 6.000000000000000000e+00 1.241999999999999993e+01 8.560000000000000497e+00 2.819999999999999840e+00 2.114000000000000057e+01
6.000000000000000000e+00 5.959999999999999964e+00 1.200000000000000000e+01 9.000000000000000000e+00 2.560000000000000053e+00 2.100000000000000000e+01
6.000000000000000000e+00 5.519999999999999574e+00 1.200000000000000000e+01 9.000000000000000000e+00 3.000000000000000000e+00 2.100000000000000000e+01
6.000000000000000000e+00 5.000000000000000000e+00 1.200000000000000000e+01 9.380000000000000782e+00 3.000000000000000000e+00 2.010000000000000142e+01
6.000000000000000000e+00 5.000000000000000000e+00 1.200000000000000000e+01 9.320000000000000284e+00 3.000000000000000000e+00 2.000000000000000000e+01
6.000000000000000000e+00 5.000000000000000000e+00 1.122000000000000064e+01 9.000000000000000000e+00 3.000000000000000000e+00 2.037999999999999901e+01
6.000000000000000000e+00 5.000000000000000000e+00 1.100000000000000000e+01 9.000000000000000000e+00 3.000000000000000000e+00 2.114000000000000057e+01
6.000000000000000000e+00 5.000000000000000000e+00 1.100000000000000000e+01 9.000000000000000000e+00 3.060000000000000053e+00 2.200000000000000000e+01
6.000000000000000000e+00 5.000000000000000000e+00 1.100000000000000000e+01 9.000000000000000000e+00 3.299999999999999822e+00 2.160000000000000142e+01
6.000000000000000000e+00 5.000000000000000000e+00 1.100000000000000000e+01 9.000000000000000000e+00 4.000000000000000000e+00 2.173999999999999844e+01
6.000000000000000000e+00 5.000000000000000000e+00 1.100000000000000000e+01 8.919999999999999929e+00 3.500000000000000000e+00 2.100000000000000000e+01
5.459999999999999964e+00 5.000000000000000000e+00 1.100000000000000000e+01 8.800000000000000711e+00 3.399999999999999911e+00 2.144000000000000128e+01
5.000000000000000000e+00 5.000000000000000000e+00 1.064000000000000057e+01 8.039999999999999147e+00 3.000000000000000000e+00 2.151999999999999957e+01
5.000000000000000000e+00 5.000000000000000000e+00 1.000000000000000000e+01 8.000000000000000000e+00 3.000000000000000000e+00 2.101999999999999957e+01
5.000000000000000000e+00 5.000000000000000000e+00 1.000000000000000000e+01 8.000000000000000000e+00 3.000000000000000000e+00 2.189999999999999858e+01
5.519999999999999574e+00 5.000000000000000000e+00 1.001999999999999957e+01 8.000000000000000000e+00 3.000000000000000000e+00 2.194000000000000128e+01
5.639999999999999680e+00 5.000000000000000000e+00 1.066000000000000014e+01 8.060000000000000497e+00 3.000000000000000000e+00 2.142000000000000171e+01
5.000000000000000000e+00 5.000000000000000000e+00 1.017999999999999972e+01 8.699999999999999289e+00 3.180000000000000160e+00 2.048000000000000043e+01
5.339999999999999858e+00 5.000000000000000000e+00 1.000000000000000000e+01 9.000000000000000000e+00 3.000000000000000000e+00 2.100000000000000000e+01
5.700000000000000178e+00 5.000000000000000000e+00 1.000000000000000000e+01 9.000000000000000000e+00 3.819999999999999840e+00 2.221999999999999886e+01
5.259999999999999787e+00 5.000000000000000000e+00 9.939999999999999503e+00 9.000000000000000000e+00 4.000000000000000000e+00 2.246000000000000085e+01
5.000000000000000000e+00 5.000000000000000000e+00 9.560000000000000497e+00 8.160000000000000142e+00 3.439999999999999947e+00 2.200000000000000000e+01
5.000000000000000000e+00 5.000000000000000000e+00 1.000000000000000000e+01 8.160000000000000142e+00 3.899999999999999911e+00 2.139999999999999858e+01
5.000000000000000000e+00 5.000000000000000000e+00 9.919999999999999929e+00 8.359999999999999432e+00 3.799999999999999822e+00 2.100000000000000000e+01
5.139999999999999680e+00 5.000000000000000000e+00 1.000000000000000000e+01 9.539999999999999147e+00 4.059999999999999609e+00 2.153999999999999915e+01
1.400000000000000000e+01 2.000000000000000000e+01 8.804000000000000625e+01 1.100000000000000000e+01 1.000000000000000000e+01 9.259999999999999787e+00
1.391999999999999993e+01 2.000000000000000000e+01 9.045999999999999375e+01 1.088000000000000078e+01 1.008000000000000007e+01 9.000000000000000000e+00
1.400000000000000000e+01 2.053999999999999915e+01 9.268000000000000682e+01 1.100000000000000000e+01 1.183999999999999986e+01 9.000000000000000000e+00
1.400000000000000000e+01 2.100000000000000000e+01 9.240000000000000568e+01 1.222000000000000064e+01 1.283999999999999986e+01 9.000000000000000000e+00
1.446000000000000085e+01 2.198000000000000043e+01 9.379999999999999716e+01 1.610000000000000142e+01 1.440000000000000036e+01 9.519999999999999574e+00
1.506000000000000050e+01 2.194000000000000128e+01 9.307999999999999829e+01 1.739999999999999858e+01 1.630000000000000071e+01 1.000000000000000000e+01
1.635999999999999943e+01 2.200000000000000000e+01 9.040000000000000568e+01 1.900000000000000000e+01 2.183999999999999986e+01 9.500000000000000000e+00
1.650000000000000000e+01 2.223999999999999844e+01 9.073999999999999488e+01 2.078000000000000114e+01 2.264000000000000057e+01 9.320000000000000284e+00
1.700000000000000000e+01 2.360000000000000142e+01 8.906000000000000227e+01 2.466000000000000014e+01 2.300000000000000000e+01 1.122000000000000064e+01
1.789999999999999858e+01 2.782000000000000028e+01 8.865999999999999659e+01 2.685999999999999943e+01 2.326000000000000156e+01 1.225999999999999979e+01
1.898000000000000043e+01 3.123999999999999844e+01 8.951999999999999602e+01 3.012000000000000099e+01 2.416000000000000014e+01 1.300000000000000000e+01
1.901999999999999957e+01 3.471999999999999886e+01 8.454000000000000625e+01 3.265999999999999659e+01 2.523999999999999844e+01 1.385999999999999943e+01
1.989999999999999858e+01 3.600000000000000000e+01 8.254000000000000625e+01 3.343999999999999773e+01 2.537999999999999901e+01 1.400000000000000000e+01
1.987999999999999901e+01 3.752000000000000313e+01 8.354000000000000625e+01 3.411999999999999744e+01 2.512000000000000099e+01 1.400000000000000000e+01
2.005999999999999872e+01 3.739999999999999858e+01 8.234000000000000341e+01 3.334000000000000341e+01 2.462000000000000099e+01 1.332000000000000028e+01
2.000000000000000000e+01 3.700000000000000000e+01 8.535999999999999943e+01 3.338000000000000256e+01 2.337999999999999901e+01 1.383999999999999986e+01
1.953999999999999915e+01 3.642000000000000171e+01 8.557999999999999829e+01 3.300000000000000000e+01 1.819999999999999929e+01 1.364000000000000057e+01
1.900000000000000000e+01 3.578000000000000114e+01 8.409999999999999432e+01 3.207999999999999829e+01 1.819999999999999929e+01 1.369999999999999929e+01
1.878000000000000114e+01 3.460000000000000142e+01 8.356000000000000227e+01 3.000000000000000000e+01 1.985999999999999943e+01 1.243999999999999950e+01
1.739999999999999858e+01 3.117999999999999972e+01 8.381999999999999318e+01 2.785999999999999943e+01 1.967999999999999972e+01 1.180000000000000071e+01
1.692000000000000171e+01 2.785999999999999943e+01 8.257999999999999829e+01 2.483999999999999986e+01 1.887999999999999901e+01 1.100000000000000000e+01
1.600000000000000000e+01 2.407999999999999829e+01 8.207999999999999829e+01 2.133999999999999986e+01 1.716000000000000014e+01 1.011999999999999922e+01
1.633999999999999986e+01 2.166000000000000014e+01 8.081999999999999318e+01 1.982000000000000028e+01 1.617999999999999972e+01 1.000000000000000000e+01
1.614000000000000057e+01 1.937999999999999901e+01 7.879999999999999716e+01 1.821999999999999886e+01 1.600000000000000000e+01 1.000000000000000000e+01
1.567999999999999972e+01 1.857999999999999829e+01 8.031999999999999318e+01 1.728000000000000114e+01 1.525999999999999979e+01 1.022000000000000064e+01
1.500000000000000000e+01 1.928000000000000114e+01 7.993999999999999773e+01 1.700000000000000000e+01 1.600000000000000000e+01 1.046000000000000085e+01
1.485999999999999943e+01 2.100000000000000000e+01 8.362000000000000455e+01 1.928000000000000114e+01 1.789999999999999858e+01 1.033999999999999986e+01
1.553999999999999915e+01 2.107999999999999829e+01 9.093999999999999773e+01 2.500000000000000000e+01 2.026000000000000156e+01 1.000000000000000000e+01
1.600000000000000000e+01 2.198000000000000043e+01 9.292000000000000171e+01 2.601999999999999957e+01 1.948000000000000043e+01 1.066000000000000014e+01
1.600000000000000000e+01 2.200000000000000000e+01 9.237999999999999545e+01 2.700000000000000000e+01 2.000000000000000000e+01 1.090000000000000036e+01
1.600000000000000000e+01 2.226000000000000156e+01 9.214000000000000057e+01 2.787999999999999901e+01 2.016000000000000014e+01 1.008000000000000007e+01
1.600000000000000000e+01 2.350000000000000000e+01 8.995999999999999375e+01 2.821999999999999886e+01 2.010000000000000142e+01 1.000000000000000000e+01
1.532000000000000028e+01 2.607999999999999829e+01 8.765999999999999659e+01 2.800000000000000000e+01 2.000000000000000000e+01 1.000000000000000000e+01
1.500000000000000000e+01 2.776000000000000156e+01 8.659999999999999432e+01 2.800000000000000000e+01 2.000000000000000000e+01 1.000000000000000000e+01
1.450000000000000000e+01 2.948000000000000043e+01 8.218000000000000682e+01 2.776000000000000156e+01 2.000000000000000000e+01 1.000000000000000000e+01
1.400000000000000000e+01 2.932000000000000028e+01 7.643999999999999773e+01 2.700000000000000000e+01 1.992000000000000171e+01 9.539999999999999147e+00
1.390000000000000036e+01 2.800000000000000000e+01 6.584000000000000341e+01 2.401999999999999957e+01 1.717999999999999972e+01 9.000000000000000000e+00
1.222000000000000064e+01 2.767999999999999972e+01 5.114000000000000057e+01 1.800000000000000000e+01 1.361999999999999922e+01 8.919999999999999929e+00
1.116000000000000014e+01 2.637999999999999901e+01 4.197999999999999687e+01 1.575999999999999979e+01 1.140000000000000036e+01 7.080000000000000071e+00
1.048000000000000043e+01 2.600000000000000000e+01 3.411999999999999744e+01 1.324000000000000021e+01 9.220000000000000639e+00 6.339999999999999858e+00
3.000000000000000000e+00 5.000000000000000000e+00 1.928000000000000114e+01 5.000000000000000000e+00 0.000000000000000000e+00 3.000000000000000000e+00
3.000000000000000000e+00 5.000000000000000000e+00 1.800000000000000000e+01 5.000000000000000000e+00 0.000000000000000000e+00 2.580000000000000071e+00
3.000000000000000000e+00 4.059999999999999609e+00 1.794000000000000128e+01 5.000000000000000000e+00 0.000000000000000000e+00 2.000000000000000000e+00
3.000000000000000000e+00 4.000000000000000000e+00 1.762000000000000099e+01 5.000000000000000000e+00 0.000000000000000000e+00 2.000000000000000000e+00
3.000000000000000000e+00 4.000000000000000000e+00 1.800000000000000000e+01 5.000000000000000000e+00 0.000000000000000000e+00 2.000000000000000000e+00
3.000000000000000000e+00 4.000000000000000000e+00 1.800000000000000000e+01 5.000000000000000000e+00 0.000000000000000000e+00 2.000000000000000000e+00
3.000000000000000000e+00 3.279999999999999805e+00 1.846000000000000085e+01 5.000000000000000000e+00 0.000000000000000000e+00 2.000000000000000000e+00
3.000000000000000000e+00 3.000000000000000000e+00 1.926000000000000156e+01 5.000000000000000000e+00 0.000000000000000000e+00 2.000000000000000000e+00
3.000000000000000000e+00 2.680000000000000160e+00 1.830000000000000071e+01 5.000000000000000000e+00 0.000000000000000000e+00 2.000000000000000000e+00
3.000000000000000000e+00 2.000000000000000000e+00 1.821999999999999886e+01 5.000000000000000000e+00 0.000000000000000000e+00 2.000000000000000000e+00
3.000000000000000000e+00 2.060000000000000053e+00 1.735999999999999943e+01 5.000000000000000000e+00 0.000000000000000000e+00 2.000000000000000000e+00
3.000000000000000000e+00 3.000000000000000000e+00 1.796000000000000085e+01 5.000000000000000000e+00 0.000000000000000000e+00 2.000000000000000000e+00
3.000000000000000000e+00 3.000000000000000000e+00 1.839999999999999858e+01 5.000000000000000000e+00 0.000000000000000000e+00 2.000000000000000000e+00
3.000000000000000000e+00 3.000000000000000000e+00 1.828000000000000114e+01 5.000000000000000000e+00 0.000000000000000000e+00 2.000000000000000000e+00
3.000000000000000000e+00 3.000000000000000000e+00 1.771999999999999886e+01 5.000000000000000000e+00 0.000000000000000000e+00 2.000000000000000000e+00
3.000000000000000000e+00 3.000000000000000000e+00 1.800000000000000000e+01 5.000000000000000000e+00 0.000000000000000000e+00 2.000000000000000000e+00
3.000000000000000000e+00 3.000000000000000000e+00 1.744000000000000128e+01 5.000000000000000000e+00 0.000000000000000000e+00 2.020000000000000018e+00
3.000000000000000000e+00 3.000000000000000000e+00 1.600000000000000000e+01 5.099999999999999645e+00 0.000000000000000000e+00 2.660000000000000142e+00
3.000000000000000000e+00 3.000000000000000000e+00 1.600000000000000000e+01 5.320000000000000284e+00 0.000000000000000000e+00 2.919999999999999929e+00
3.000000000000000000e+00 3.000000000000000000e+00 1.585999999999999943e+01 6.000000000000000000e+00 0.000000000000000000e+00 3.000000000000000000e+00
3.000000000000000000e+00 3.000000000000000000e+00 1.600000000000000000e+01 6.000000000000000000e+00 7.800000000000000266e-01 3.000000000000000000e+00
3.000000000000000000e+00 3.000000000000000000e+00 1.503999999999999915e+01 6.000000000000000000e+00 1.000000000000000000e+00 3.000000000000000000e+00
3.000000000000000000e+00 3.000000000000000000e+00 1.550000000000000000e+01 6.879999999999999893e+00 1.000000000000000000e+00 3.000000000000000000e+00
3.000000000000000000e+00 3.000000000000000000e+00 1.500000000000000000e+01 7.000000000000000000e+00 1.000000000000000000e+00 3.000000000000000000e+00
3.000000000000000000e+00 3.439999999999999947e+00 1.480000000000000071e+01 7.000000000000000000e+00 1.000000000000000000e+00 3.000000000000000000e+00
3.000000000000000000e+00 4.000000000000000000e+00 1.500000000000000000e+01 7.000000000000000000e+00 1.000000000000000000e+00 3.000000000000000000e+00
3.000000000000000000e+00 4.000000000000000000e+00 1.532000000000000028e+01 7.000000000000000000e+00 1.139999999999999902e+00 3.000000000000000000e+00
3.000000000000000000e+00 4.000000000000000000e+00 1.600000000000000000e+01 7.000000000000000000e+00 1.280000000000000027e+00 3.000000000000000000e+00
3.000000000000000000e+00 4.139999999999999680e+00 1.600000000000000000e+01 7.379999999999999893e+00 1.300000000000000044e+00 3.000000000000000000e+00
3.000000000000000000e+00 5.000000000000000000e+00 1.650000000000000000e+01 7.000000000000000000e+00 2.000000000000000000e+00 3.000000000000000000e+00
3.000000000000000000e+00 5.000000000000000000e+00 1.687999999999999901e+01 7.000000000000000000e+00 1.780000000000000027e+00 3.000000000000000000e+00
3.000000000000000000e+00 4.799999999999999822e+00 1.800000000000000000e+01 7.000000000000000000e+00 2.000000000000000000e+00 3.000000000000000000e+00
3.000000000000000000e+00 4.139999999999999680e+00 1.712000000000000099e+01 7.000000000000000000e+00 2.000000000000000000e+00 3.000000000000000000e+00
3.000000000000000000e+00 4.000000000000000000e+00 1.700000000000000000e+01 7.000000000000000000e+00 2.000000000000000000e+00 3.000000000000000000e+00
3.000000000000000000e+00 4.000000000000000000e+00 1.700000000000000000e+01 6.900000000000000355e+00 2.000000000000000000e+00 3.000000000000000000e+00
2.140000000000000124e+00 4.000000000000000000e+00 1.671999999999999886e+01 6.000000000000000000e+00 2.000000000000000000e+00 3.000000000000000000e+00
2.000000000000000000e+00 4.000000000000000000e+00 1.567999999999999972e+01 6.000000000000000000e+00 1.659999999999999920e+00 3.000000000000000000e+00
2.000000000000000000e+00 4.000000000000000000e+00 1.464000000000000057e+01 5.360000000000000320e+00 1.000000000000000000e+00 3.000000000000000000e+00
2.000000000000000000e+00 4.000000000000000000e+00 1.400000000000000000e+01 5.000000000000000000e+00 1.000000000000000000e+00 3.000000000000000000e+00
2.000000000000000000e+00 4.000000000000000000e+00 1.346000000000000085e+01 4.759999999999999787e+00 1.000000000000000000e+00 2.620000000000000107e+00
3.378000000000000114e+01 3.017999999999999972e+01 1.848000000000000043e+01 1.600000000000000000e+01 1.425999999999999979e+01 2.687999999999999901e+01
3.571999999999999886e+01 3.010000000000000142e+01 1.800000000000000000e+01 1.600000000000000000e+01 1.306000000000000050e+01 2.517999999999999972e+01
3.603999999999999915e+01 2.894000000000000128e+01 1.792000000000000171e+01 1.607999999999999829e+01 1.293999999999999950e+01 2.500000000000000000e+01
3.615999999999999659e+01 2.914000000000000057e+01 1.800000000000000000e+01 1.683999999999999986e+01 1.400000000000000000e+01 2.492000000000000171e+01
3.675999999999999801e+01 2.917999999999999972e+01 1.796000000000000085e+01 1.662000000000000099e+01 1.400000000000000000e+01 2.398000000000000043e+01
3.564000000000000057e+01 2.832000000000000028e+01 1.700000000000000000e+01 1.700000000000000000e+01 1.427999999999999936e+01 2.269999999999999929e+01
3.578000000000000114e+01 2.800000000000000000e+01 1.700000000000000000e+01 1.789999999999999858e+01 1.500000000000000000e+01 2.103999999999999915e+01
3.567999999999999972e+01 2.869999999999999929e+01 1.769999999999999929e+01 1.764000000000000057e+01 1.660000000000000142e+01 2.194000000000000128e+01
3.460000000000000142e+01 2.823999999999999844e+01 1.857999999999999829e+01 1.800000000000000000e+01 1.900000000000000000e+01 2.300000000000000000e+01
3.335999999999999943e+01 2.744000000000000128e+01 1.900000000000000000e+01 1.800000000000000000e+01 1.900000000000000000e+01 2.273999999999999844e+01
3.628000000000000114e+01 2.933999999999999986e+01 1.900000000000000000e+01 1.800000000000000000e+01 1.900000000000000000e+01 2.278000000000000114e+01
3.624000000000000199e+01 2.992000000000000171e+01 1.900000000000000000e+01 1.800000000000000000e+01 1.900000000000000000e+01 2.235999999999999943e+01
3.475999999999999801e+01 2.998000000000000043e+01 1.821999999999999886e+01 1.787999999999999901e+01 1.878000000000000114e+01 2.200000000000000000e+01
3.189999999999999858e+01 2.812000000000000099e+01 1.801999999999999957e+01 1.700000000000000000e+01 1.800000000000000000e+01 2.105999999999999872e+01
3.194000000000000128e+01 2.705999999999999872e+01 1.830000000000000071e+01 1.637999999999999901e+01 1.800000000000000000e+01 2.037999999999999901e+01
3.200000000000000000e+01 2.700000000000000000e+01 1.900000000000000000e+01 1.612000000000000099e+01 1.767999999999999972e+01 2.000000000000000000e+01
3.210000000000000142e+01 2.716000000000000014e+01 1.900000000000000000e+01 1.525999999999999979e+01 1.700000000000000000e+01 1.921999999999999886e+01
3.200000000000000000e+01 2.757999999999999829e+01 1.830000000000000071e+01 1.553999999999999915e+01 1.519999999999999929e+01 1.687999999999999901e+01
3.200000000000000000e+01 2.700000000000000000e+01 1.687999999999999901e+01 1.535999999999999943e+01 1.296000000000000085e+01 1.541999999999999993e+01
3.224000000000000199e+01 2.801999999999999957e+01 1.600000000000000000e+01 1.548000000000000043e+01 1.217999999999999972e+01 1.535999999999999943e+01
2.964000000000000057e+01 2.701999999999999957e+01 1.600000000000000000e+01 1.506000000000000050e+01 1.201999999999999957e+01 1.508000000000000007e+01
2.700000000000000000e+01 2.603999999999999915e+01 1.600000000000000000e+01 1.683999999999999986e+01 1.266000000000000014e+01 1.501999999999999957e+01
2.703999999999999915e+01 2.637999999999999901e+01 1.646000000000000085e+01 1.610000000000000142e+01 1.216000000000000014e+01 1.533999999999999986e+01
2.700000000000000000e+01 2.650000000000000000e+01 1.610000000000000142e+01 1.600000000000000000e+01 1.214000000000000057e+01 1.508000000000000007e+01
2.569999999999999929e+01 2.621999999999999886e+01 1.682000000000000028e+01 1.669999999999999929e+01 1.200000000000000000e+01 1.585999999999999943e+01
2.485999999999999943e+01 2.544000000000000128e+01 1.664000000000000057e+01 1.762000000000000099e+01 1.266000000000000014e+01 1.678000000000000114e+01
2.476000000000000156e+01 2.585999999999999943e+01 2.167999999999999972e+01 1.867999999999999972e+01 1.317999999999999972e+01 1.705999999999999872e+01
2.600000000000000000e+01 2.578000000000000114e+01 2.200000000000000000e+01 1.800000000000000000e+01 1.300000000000000000e+01 1.800000000000000000e+01
2.532000000000000028e+01 2.557999999999999829e+01 2.200000000000000000e+01 1.800000000000000000e+01 1.222000000000000064e+01 1.757999999999999829e+01
2.416000000000000014e+01 2.373999999999999844e+01 2.173999999999999844e+01 1.764000000000000057e+01 1.200000000000000000e+01 1.700000000000000000e+01
2.226000000000000156e+01 2.162000000000000099e+01 2.100000000000000000e+01 1.700000000000000000e+01 1.193999999999999950e+01 1.671999999999999886e+01
2.139999999999999858e+01 2.060000000000000142e+01 2.100000000000000000e+01 1.607999999999999829e+01 1.100000000000000000e+01 1.600000000000000000e+01
1.946000000000000085e+01 1.901999999999999957e+01 2.001999999999999957e+01 1.598000000000000043e+01 1.051999999999999957e+01 1.491999999999999993e+01
1.855999999999999872e+01 1.800000000000000000e+01 1.969999999999999929e+01 1.500000000000000000e+01 1.000000000000000000e+01 1.400000000000000000e+01
1.750000000000000000e+01 1.603999999999999915e+01 1.828000000000000114e+01 1.356000000000000050e+01 9.359999999999999432e+00 1.335999999999999943e+01
1.694000000000000128e+01 1.475999999999999979e+01 1.723999999999999844e+01 1.156000000000000050e+01 7.879999999999999893e+00 1.188000000000000078e+01
1.466000000000000014e+01 1.193999999999999950e+01 9.279999999999999361e+00 9.560000000000000497e+00 5.940000000000000391e+00 1.043999999999999950e+01
9.339999999999999858e+00 8.199999999999999289e+00 6.799999999999999822e+00 8.000000000000000000e+00 5.000000000000000000e+00 7.059999999999999609e+00
8.099999999999999645e+00 7.000000000000000000e+00 6.000000000000000000e+00 7.639999999999999680e+00 5.000000000000000000e+00 6.280000000000000249e+00
7.959999999999999964e+00 6.459999999999999964e+00 5.379999999999999893e+00 7.000000000000000000e+00 4.700000000000000178e+00 6.000000000000000000e+00
2.000000000000000000e+00 2.000000000000000000e+00 7.059999999999999609e+00 2.000000000000000000e+00 0.000000000000000000e+00 1.000000000000000000e+00
2.000000000000000000e+00 2.000000000000000000e+00 4.820000000000000284e+00 2.000000000000000000e+00 0.000000000000000000e+00 1.000000000000000000e+00
2.000000000000000000e+00 2.000000000000000000e+00 4.000000000000000000e+00 2.000000000000000000e+00 0.000000000000000000e+00 1.000000000000000000e+00
2.000000000000000000e+00 2.000000000000000000e+00 3.620000000000000107e+00 2.000000000000000000e+00 0.000000000000000000e+00 1.000000000000000000e+00
2.000000000000000000e+00 2.000000000000000000e+00 3.000000000000000000e+00 2.000000000000000000e+00 0.000000000000000000e+00 1.000000000000000000e+00
2.000000000000000000e+00 2.000000000000000000e+00 3.000000000000000000e+00 2.000000000000000000e+00 0.000000000000000000e+00 1.000000000000000000e+00
2.000000000000000000e+00 2.000000000000000000e+00 3.000000000000000000e+00 2.000000000000000000e+00 0.000000000000000000e+00 1.000000000000000000e+00
2.000000000000000000e+00 2.000000000000000000e+00 3.000000000000000000e+00 2.000000000000000000e+00 0.000000000000000000e+00 1.000000000000000000e+00
2.000000000000000000e+00 2.000000000000000000e+00 3.000000000000000000e+00 2.000000000000000000e+00 0.000000000000000000e+00 1.000000000000000000e+00
1.699999999999999956e+00 2.000000000000000000e+00 3.000000000000000000e+00 2.000000000000000000e+00 0.000000000000000000e+00 1.000000000000000000e+00
1.000000000000000000e+00 2.000000000000000000e+00 3.000000000000000000e+00 2.000000000000000000e+00 0.000000000000000000e+00 1.000000000000000000e+00
1.000000000000000000e+00 2.000000000000000000e+00 3.000000000000000000e+00 2.000000000000000000e+00 0.000000000000000000e+00 1.000000000000000000e+00
1.000000000000000000e+00 2.000000000000000000e+00 3.000000000000000000e+00 2.000000000000000000e+00 0.000000000000000000e+00 1.000000000000000000e+00
1.000000000000000000e+00 2.000000000000000000e+00 3.000000000000000000e+00 2.000000000000000000e+00 0.000000000000000000e+00 1.000000000000000000e+00
1.800000000000000044e+00 2.000000000000000000e+00 3.000000000000000000e+00 2.000000000000000000e+00 0.000000000000000000e+00 1.000000000000000000e+00
2.000000000000000000e+00 2.000000000000000000e+00 2.419999999999999929e+00 2.000000000000000000e+00 0.000000000000000000e+00 1.000000000000000000e+00
1.360000000000000098e+00 2.000000000000000000e+00 2.000000000000000000e+00 2.000000000000000000e+00 0.000000000000000000e+00 1.000000000000000000e+00
1.000000000000000000e+00 2.000000000000000000e+00 2.000000000000000000e+00 2.000000000000000000e+00 0.000000000000000000e+00 1.000000000000000000e+00
1.000000000000000000e+00 2.000000000000000000e+00 2.000000000000000000e+00 2.000000000000000000e+00 0.000000000000000000e+00 1.000000000000000000e+00
1.000000000000000000e+00 2.000000000000000000e+00 2.000000000000000000e+00 2.000000000000000000e+00 0.000000000000000000e+00 1.000000000000000000e+00
1.000000000000000000e+00 2.000000000000000000e+00 2.000000000000000000e+00 2.000000000000000000e+00 0.000000000000000000e+00 1.000000000000000000e+00
1.000000000000000000e+00 2.000000000000000000e+00 2.000000000000000000e+00 2.000000000000000000e+00 0.000000000000000000e+00 1.000000000000000000e+00
1.000000000000000000e+00 2.000000000000000000e+00 2.000000000000000000e+00 1.800000000000000044e+00 0.000000000000000000e+00 1.000000000000000000e+00
1.000000000000000000e+00 2.000000000000000000e+00 2.000000000000000000e+00 1.860000000000000098e+00 0.000000000000000000e+00 1.000000000000000000e+00
1.000000000000000000e+00 2.000000000000000000e+00 2.000000000000000000e+00 1.000000000000000000e+00 0.000000000000000000e+00 1.000000000000000000e+00
1.000000000000000000e+00 2.000000000000000000e+00 2.000000000000000000e+00 1.360000000000000098e+00 0.000000000000000000e+00 1.000000000000000000e+00
1.000000000000000000e+00 2.000000000000000000e+00 2.000000000000000000e+00 2.000000000000000000e+00 0.000000000000000000e+00 1.000000000000000000e+00
1.000000000000000000e+00 2.000000000000000000e+00 2.000000000000000000e+00 1.979999999999999982e+00 0.000000000000000000e+00 1.000000000000000000e+00
1.000000000000000000e+00 2.000000000000000000e+00 2.000000000000000000e+00 2.000000000000000000e+00 0.000000000000000000e+00 1.000000000000000000e+00
1.000000000000000000e+00 2.000000000000000000e+00 2.000000000000000000e+00 1.840000000000000080e+00 0.000000000000000000e+00 1.000000000000000000e+00
1.000000000000000000e+00 2.000000000000000000e+00 2.000000000000000000e+00 1.000000000000000000e+00 0.000000000000000000e+00 1.000000000000000000e+00
1.000000000000000000e+00 2.000000000000000000e+00 2.000000000000000000e+00 1.000000000000000000e+00 0.000000000000000000e+00 1.000000000000000000e+00
1.000000000000000000e+00 2.000000000000000000e+00 2.000000000000000000e+00 1.000000000000000000e+00 0.000000000000000000e+00 1.000000000000000000e+00
1.000000000000000000e+00 2.000000000000000000e+00 2.000000000000000000e+00 1.000000000000000000e+00 0.000000000000000000e+00 1.000000000000000000e+00
1.000000000000000000e+00 1.080000000000000071e+00 2.000000000000000000e+00 1.000000000000000000e+00 0.000000000000000000e+00 1.000000000000000000e+00
1.000000000000000000e+00 1.000000000000000000e+00 2.000000000000000000e+00 1.000000000000000000e+00 0.000000000000000000e+00 1.000000000000000000e+00
9.399999999999999467e-01 1.000000000000000000e+00 2.000000000000000000e+00 1.000000000000000000e+00 0.000000000000000000e+00 1.000000000000000000e+00
0.000000000000000000e+00 1.000000000000000000e+00 2.000000000000000000e+00 1.000000000000000000e+00 0.000000000000000000e+00 1.000000000000000000e+00
0.000000000000000000e+00 1.000000000000000000e+00 1.919999999999999929e+00 1.000000000000000000e+00 0.000000000000000000e+00 1.000000000000000000e+00
0.000000000000000000e+00 1.000000000000000000e+00 1.000000000000000000e+00 1.000000000000000000e+00 0.000000000000000000e+00 1.000000000000000000e+00
