0.000000000000000000e+00 1.000000000000000000e+00 2.000000000000000000e+00 1.000000000000000000e+00 7.199999999999999734e-01 1.000000000000000000e+00
0.000000000000000000e+00 1.000000000000000000e+00 2.000000000000000000e+00 1.000000000000000000e+00 0.000000000000000000e+00 1.000000000000000000e+00
0.000000000000000000e+00 1.560000000000000053e+00 2.000000000000000000e+00 1.000000000000000000e+00 0.000000000000000000e+00 1.000000000000000000e+00
0.000000000000000000e+00 2.000000000000000000e+00 2.000000000000000000e+00 1.000000000000000000e+00 0.000000000000000000e+00 1.000000000000000000e+00
0.000000000000000000e+00 2.000000000000000000e+00 2.000000000000000000e+00 1.000000000000000000e+00 0.000000000000000000e+00 1.000000000000000000e+00
0.000000000000000000e+00 2.000000000000000000e+00 2.000000000000000000e+00 1.000000000000000000e+00 0.000000000000000000e+00 1.000000000000000000e+00
0.000000000000000000e+00 2.000000000000000000e+00 2.000000000000000000e+00 1.000000000000000000e+00 0.000000000000000000e+00 1.000000000000000000e+00
0.000000000000000000e+00 2.000000000000000000e+00 2.000000000000000000e+00 1.000000000000000000e+00 0.000000000000000000e+00 1.000000000000000000e+00
0.000000000000000000e+00 2.000000000000000000e+00 2.000000000000000000e+00 1.000000000000000000e+00 0.000000000000000000e+00 1.000000000000000000e+00
0.000000000000000000e+00 1.120000000000000107e+00 2.000000000000000000e+00 1.060000000000000053e+00 0.000000000000000000e+00 1.000000000000000000e+00
0.000000000000000000e+00 1.000000000000000000e+00 2.000000000000000000e+00 1.459999999999999964e+00 0.000000000000000000e+00 1.000000000000000000e+00
0.000000000000000000e+00 1.000000000000000000e+00 2.000000000000000000e+00 1.000000000000000000e+00 0.000000000000000000e+00 1.000000000000000000e+00
0.000000000000000000e+00 1.000000000000000000e+00 2.000000000000000000e+00 1.000000000000000000e+00 0.000000000000000000e+00 1.000000000000000000e+00
0.000000000000000000e+00 1.000000000000000000e+00 2.000000000000000000e+00 1.000000000000000000e+00 0.000000000000000000e+00 1.000000000000000000e+00
0.000000000000000000e+00 1.060000000000000053e+00 2.000000000000000000e+00 1.000000000000000000e+00 0.000000000000000000e+00 1.000000000000000000e+00
0.000000000000000000e+00 1.219999999999999973e+00 2.000000000000000000e+00 1.000000000000000000e+00 0.000000000000000000e+00 1.000000000000000000e+00
0.000000000000000000e+00 1.080000000000000071e+00 2.000000000000000000e+00 1.000000000000000000e+00 0.000000000000000000e+00 1.000000000000000000e+00
0.000000000000000000e+00 1.379999999999999893e+00 2.000000000000000000e+00 1.000000000000000000e+00 0.000000000000000000e+00 1.000000000000000000e+00
0.000000000000000000e+00 1.560000000000000053e+00 2.000000000000000000e+00 1.000000000000000000e+00 0.000000000000000000e+00 1.000000000000000000e+00
0.000000000000000000e+00 1.620000000000000107e+00 2.000000000000000000e+00 1.000000000000000000e+00 0.000000000000000000e+00 1.000000000000000000e+00
0.000000000000000000e+00 1.000000000000000000e+00 2.000000000000000000e+00 1.000000000000000000e+00 0.000000000000000000e+00 1.000000000000000000e+00
0.000000000000000000e+00 1.000000000000000000e+00 2.000000000000000000e+00 1.000000000000000000e+00 0.000000000000000000e+00 1.000000000000000000e+00
0.000000000000000000e+00 1.000000000000000000e+00 2.000000000000000000e+00 1.000000000000000000e+00 0.000000000000000000e+00 1.000000000000000000e+00
0.000000000000000000e+00 1.000000000000000000e+00 2.000000000000000000e+00 1.000000000000000000e+00 0.000000000000000000e+00 1.000000000000000000e+00
0.000000000000000000e+00 1.000000000000000000e+00 2.000000000000000000e+00 1.580000000000000071e+00 0.000000000000000000e+00 1.000000000000000000e+00
0.000000000000000000e+00 1.000000000000000000e+00 2.000000000000000000e+00 2.000000000000000000e+00 0.000000000000000000e+00 1.000000000000000000e+00
0.000000000000000000e+00 1.000000000000000000e+00 2.000000000000000000e+00 2.000000000000000000e+00 0.000000000000000000e+00 1.000000000000000000e+00
0.000000000000000000e+00 1.000000000000000000e+00 2.000000000000000000e+00 2.000000000000000000e+00 0.000000000000000000e+00 1.000000000000000000e+00
0.000000000000000000e+00 1.000000000000000000e+00 2.000000000000000000e+00 2.000000000000000000e+00 0.000000000000000000e+00 1.000000000000000000e+00
0.000000000000000000e+00 1.000000000000000000e+00 2.000000000000000000e+00 2.000000000000000000e+00 0.000000000000000000e+00 1.000000000000000000e+00
0.000000000000000000e+00 1.000000000000000000e+00 2.000000000000000000e+00 2.000000000000000000e+00 0.000000000000000000e+00 1.000000000000000000e+00
0.000000000000000000e+00 1.000000000000000000e+00 2.000000000000000000e+00 2.000000000000000000e+00 0.000000000000000000e+00 1.000000000000000000e+00
0.000000000000000000e+00 1.000000000000000000e+00 2.000000000000000000e+00 2.000000000000000000e+00 0.000000000000000000e+00 1.000000000000000000e+00
0.000000000000000000e+00 1.000000000000000000e+00 2.000000000000000000e+00 2.000000000000000000e+00 0.000000000000000000e+00 1.000000000000000000e+00
0.000000000000000000e+00 1.000000000000000000e+00 2.000000000000000000e+00 2.000000000000000000e+00 0.000000000000000000e+00 1.000000000000000000e+00
0.000000000000000000e+00 1.000000000000000000e+00 2.000000000000000000e+00 2.000000000000000000e+00 0.000000000000000000e+00 1.000000000000000000e+00
0.000000000000000000e+00 1.000000000000000000e+00 2.000000000000000000e+00 2.000000000000000000e+00 0.000000000000000000e+00 1.000000000000000000e+00
0.000000000000000000e+00 1.000000000000000000e+00 2.000000000000000000e+00 2.000000000000000000e+00 0.000000000000000000e+00 1.000000000000000000e+00
0.000000000000000000e+00 1.000000000000000000e+00 2.000000000000000000e+00 2.000000000000000000e+00 0.000000000000000000e+00 1.000000000000000000e+00
0.000000000000000000e+00 1.000000000000000000e+00 2.000000000000000000e+00 2.000000000000000000e+00 0.000000000000000000e+00 1.000000000000000000e+00
1.200000000000000000e+01 1.598000000000000043e+01 6.397999999999999687e+01 1.100000000000000000e+01 9.000000000000000000e+00 9.000000000000000000e+00
1.200000000000000000e+01 1.600000000000000000e+01 6.328000000000000114e+01 1.100000000000000000e+01 8.500000000000000000e+00 9.000000000000000000e+00
1.200000000000000000e+01 1.600000000000000000e+01 6.161999999999999744e+01 1.100000000000000000e+01 8.839999999999999858e+00 8.660000000000000142e+00
1.200000000000000000e+01 1.600000000000000000e+01 6.046000000000000085e+01 1.100000000000000000e+01 8.779999999999999361e+00 8.000000000000000000e+00
1.200000000000000000e+01 1.600000000000000000e+01 6.197999999999999687e+01 1.100000000000000000e+01 9.000000000000000000e+00 8.460000000000000853e+00
1.200000000000000000e+01 1.600000000000000000e+01 6.562000000000000455e+01 1.188000000000000078e+01 9.000000000000000000e+00 9.000000000000000000e+00
1.108000000000000007e+01 1.500000000000000000e+01 6.685999999999999943e+01 1.200000000000000000e+01 9.000000000000000000e+00 8.439999999999999503e+00
1.100000000000000000e+01 1.500000000000000000e+01 6.640000000000000568e+01 1.200000000000000000e+01 9.000000000000000000e+00 8.580000000000000071e+00
1.100000000000000000e+01 1.522000000000000064e+01 6.564000000000000057e+01 1.200000000000000000e+01 8.480000000000000426e+00 9.000000000000000000e+00
1.100000000000000000e+01 1.464000000000000057e+01 6.601999999999999602e+01 1.200000000000000000e+01 8.000000000000000000e+00 8.939999999999999503e+00
1.100000000000000000e+01 1.400000000000000000e+01 6.479999999999999716e+01 1.156000000000000050e+01 8.000000000000000000e+00 8.359999999999999432e+00
1.075999999999999979e+01 1.469999999999999929e+01 6.701999999999999602e+01 1.185999999999999943e+01 8.000000000000000000e+00 8.259999999999999787e+00
1.100000000000000000e+01 1.500000000000000000e+01 7.068000000000000682e+01 1.246000000000000085e+01 8.000000000000000000e+00 9.000000000000000000e+00
1.100000000000000000e+01 1.500000000000000000e+01 7.228000000000000114e+01 1.230000000000000071e+01 8.300000000000000711e+00 9.000000000000000000e+00
1.100000000000000000e+01 1.500000000000000000e+01 7.029999999999999716e+01 1.264000000000000057e+01 9.000000000000000000e+00 9.000000000000000000e+00
1.166000000000000014e+01 1.612000000000000099e+01 6.590000000000000568e+01 1.227999999999999936e+01 9.000000000000000000e+00 9.160000000000000142e+00
1.200000000000000000e+01 1.700000000000000000e+01 6.526000000000000512e+01 1.233999999999999986e+01 9.000000000000000000e+00 1.000000000000000000e+01
1.200000000000000000e+01 1.700000000000000000e+01 6.615999999999999659e+01 1.300000000000000000e+01 9.000000000000000000e+00 1.000000000000000000e+01
1.200000000000000000e+01 1.700000000000000000e+01 6.907999999999999829e+01 1.300000000000000000e+01 9.060000000000000497e+00 1.000000000000000000e+01
1.200000000000000000e+01 1.755999999999999872e+01 7.107999999999999829e+01 1.300000000000000000e+01 1.000000000000000000e+01 1.000000000000000000e+01
1.200000000000000000e+01 1.835999999999999943e+01 7.176000000000000512e+01 1.356000000000000050e+01 1.050000000000000000e+01 1.000000000000000000e+01
1.209999999999999964e+01 1.850000000000000000e+01 7.104000000000000625e+01 1.400000000000000000e+01 1.100000000000000000e+01 1.000000000000000000e+01
1.300000000000000000e+01 1.801999999999999957e+01 7.142000000000000171e+01 1.388000000000000078e+01 1.022000000000000064e+01 9.300000000000000711e+00
1.300000000000000000e+01 1.812000000000000099e+01 7.368000000000000682e+01 1.401999999999999957e+01 1.000000000000000000e+01 9.519999999999999574e+00
1.300000000000000000e+01 1.894000000000000128e+01 7.348000000000000398e+01 1.522000000000000064e+01 1.000000000000000000e+01 1.000000000000000000e+01
1.300000000000000000e+01 1.828000000000000114e+01 7.442000000000000171e+01 1.548000000000000043e+01 1.000000000000000000e+01 9.919999999999999929e+00
1.300000000000000000e+01 1.800000000000000000e+01 7.373999999999999488e+01 1.566000000000000014e+01 1.000000000000000000e+01 9.359999999999999432e+00
1.300000000000000000e+01 1.800000000000000000e+01 7.207999999999999829e+01 1.511999999999999922e+01 1.080000000000000071e+01 9.000000000000000000e+00
1.300000000000000000e+01 1.830000000000000071e+01 7.250000000000000000e+01 1.600000000000000000e+01 1.258000000000000007e+01 9.359999999999999432e+00
1.300000000000000000e+01 1.885999999999999943e+01 7.476000000000000512e+01 1.600000000000000000e+01 1.300000000000000000e+01 1.000000000000000000e+01
1.359999999999999964e+01 1.766000000000000014e+01 7.390000000000000568e+01 1.600000000000000000e+01 1.330000000000000071e+01 1.000000000000000000e+01
1.341999999999999993e+01 1.700000000000000000e+01 7.531999999999999318e+01 1.600000000000000000e+01 1.300000000000000000e+01 1.000000000000000000e+01
1.201999999999999957e+01 1.700000000000000000e+01 7.415999999999999659e+01 1.514000000000000057e+01 1.300000000000000000e+01 9.480000000000000426e+00
1.200000000000000000e+01 1.646000000000000085e+01 7.264000000000000057e+01 1.466000000000000014e+01 1.377999999999999936e+01 9.300000000000000711e+00
1.200000000000000000e+01 1.600000000000000000e+01 7.164000000000000057e+01 1.338000000000000078e+01 1.400000000000000000e+01 9.000000000000000000e+00
1.200000000000000000e+01 1.582000000000000028e+01 7.328000000000000114e+01 1.300000000000000000e+01 1.459999999999999964e+01 9.000000000000000000e+00
1.200000000000000000e+01 1.600000000000000000e+01 8.323999999999999488e+01 1.300000000000000000e+01 1.500000000000000000e+01 9.740000000000000213e+00
1.200000000000000000e+01 1.580000000000000071e+01 8.548000000000000398e+01 1.285999999999999943e+01 1.448000000000000043e+01 9.000000000000000000e+00
1.198000000000000043e+01 1.459999999999999964e+01 8.392000000000000171e+01 1.159999999999999964e+01 1.253999999999999915e+01 9.000000000000000000e+00
1.116000000000000014e+01 1.341999999999999993e+01 8.000000000000000000e+01 1.100000000000000000e+01 1.200000000000000000e+01 9.000000000000000000e+00
0.000000000000000000e+00 1.320000000000000062e+00 2.000000000000000000e+00 2.000000000000000000e+00 0.000000000000000000e+00 1.000000000000000000e+00
0.000000000000000000e+00 1.000000000000000000e+00 2.000000000000000000e+00 2.000000000000000000e+00 0.000000000000000000e+00 1.000000000000000000e+00
0.000000000000000000e+00 1.000000000000000000e+00 2.000000000000000000e+00 2.000000000000000000e+00 0.000000000000000000e+00 1.000000000000000000e+00
0.000000000000000000e+00 1.000000000000000000e+00 2.000000000000000000e+00 2.120000000000000107e+00 0.000000000000000000e+00 1.000000000000000000e+00
0.000000000000000000e+00 1.000000000000000000e+00 2.000000000000000000e+00 2.500000000000000000e+00 0.000000000000000000e+00 1.000000000000000000e+00
0.000000000000000000e+00 1.000000000000000000e+00 2.000000000000000000e+00 3.000000000000000000e+00 0.000000000000000000e+00 1.000000000000000000e+00
0.000000000000000000e+00 1.000000000000000000e+00 2.000000000000000000e+00 3.000000000000000000e+00 0.000000000000000000e+00 1.000000000000000000e+00
0.000000000000000000e+00 1.000000000000000000e+00 2.000000000000000000e+00 3.000000000000000000e+00 0.000000000000000000e+00 1.000000000000000000e+00
0.000000000000000000e+00 1.000000000000000000e+00 2.000000000000000000e+00 3.000000000000000000e+00 0.000000000000000000e+00 1.000000000000000000e+00
0.000000000000000000e+00 1.000000000000000000e+00 2.000000000000000000e+00 3.000000000000000000e+00 0.000000000000000000e+00 1.000000000000000000e+00
0.000000000000000000e+00 1.000000000000000000e+00 2.000000000000000000e+00 3.000000000000000000e+00 0.000000000000000000e+00 1.000000000000000000e+00
0.000000000000000000e+00 1.000000000000000000e+00 2.000000000000000000e+00 3.000000000000000000e+00 0.000000000000000000e+00 1.000000000000000000e+00
0.000000000000000000e+00 1.000000000000000000e+00 2.000000000000000000e+00 3.000000000000000000e+00 0.000000000000000000e+00 1.000000000000000000e+00
0.000000000000000000e+00 1.000000000000000000e+00 2.000000000000000000e+00 3.000000000000000000e+00 0.000000000000000000e+00 1.000000000000000000e+00
0.000000000000000000e+00 1.000000000000000000e+00 2.000000000000000000e+00 3.000000000000000000e+00 0.000000000000000000e+00 1.000000000000000000e+00
0.000000000000000000e+00 1.000000000000000000e+00 2.000000000000000000e+00 3.000000000000000000e+00 0.000000000000000000e+00 1.000000000000000000e+00
0.000000000000000000e+00 1.000000000000000000e+00 2.000000000000000000e+00 3.000000000000000000e+00 0.000000000000000000e+00 1.000000000000000000e+00
0.000000000000000000e+00 1.000000000000000000e+00 2.000000000000000000e+00 3.000000000000000000e+00 0.000000000000000000e+00 1.000000000000000000e+00
0.000000000000000000e+00 1.000000000000000000e+00 2.000000000000000000e+00 3.000000000000000000e+00 0.000000000000000000e+00 1.000000000000000000e+00
0.000000000000000000e+00 1.000000000000000000e+00 1.419999999999999929e+00 3.000000000000000000e+00 0.000000000000000000e+00 1.000000000000000000e+00
0.000000000000000000e+00 1.000000000000000000e+00 1.000000000000000000e+00 3.000000000000000000e+00 0.000000000000000000e+00 1.000000000000000000e+00
0.000000000000000000e+00 1.000000000000000000e+00 1.000000000000000000e+00 3.000000000000000000e+00 0.000000000000000000e+00 1.000000000000000000e+00
0.000000000000000000e+00 1.000000000000000000e+00 1.000000000000000000e+00 3.000000000000000000e+00 0.000000000000000000e+00 1.000000000000000000e+00
0.000000000000000000e+00 1.000000000000000000e+00 1.000000000000000000e+00 3.000000000000000000e+00 0.000000000000000000e+00 1.000000000000000000e+00
0.000000000000000000e+00 1.000000000000000000e+00 1.000000000000000000e+00 3.000000000000000000e+00 0.000000000000000000e+00 1.000000000000000000e+00
0.000000000000000000e+00 1.000000000000000000e+00 1.000000000000000000e+00 3.000000000000000000e+00 0.000000000000000000e+00 1.000000000000000000e+00
0.000000000000000000e+00 1.000000000000000000e+00 1.000000000000000000e+00 3.000000000000000000e+00 0.000000000000000000e+00 1.000000000000000000e+00
0.000000000000000000e+00 1.000000000000000000e+00 1.000000000000000000e+00 3.000000000000000000e+00 0.000000000000000000e+00 1.000000000000000000e+00
0.000000000000000000e+00 1.000000000000000000e+00 1.000000000000000000e+00 3.000000000000000000e+00 0.000000000000000000e+00 1.000000000000000000e+00
0.000000000000000000e+00 1.000000000000000000e+00 1.000000000000000000e+00 3.000000000000000000e+00 0.000000000000000000e+00 1.000000000000000000e+00
0.000000000000000000e+00 1.000000000000000000e+00 1.000000000000000000e+00 3.000000000000000000e+00 0.000000000000000000e+00 1.000000000000000000e+00
0.000000000000000000e+00 1.000000000000000000e+00 1.000000000000000000e+00 3.000000000000000000e+00 0.000000000000000000e+00 1.000000000000000000e+00
0.000000000000000000e+00 1.000000000000000000e+00 1.000000000000000000e+00 3.000000000000000000e+00 0.000000000000000000e+00 1.000000000000000000e+00
0.000000000000000000e+00 1.000000000000000000e+00 1.000000000000000000e+00 3.000000000000000000e+00 0.000000000000000000e+00 1.000000000000000000e+00
0.000000000000000000e+00 1.000000000000000000e+00 1.000000000000000000e+00 3.000000000000000000e+00 0.000000000000000000e+00 1.000000000000000000e+00
0.000000000000000000e+00 1.000000000000000000e+00 1.000000000000000000e+00 3.000000000000000000e+00 0.000000000000000000e+00 1.000000000000000000e+00
0.000000000000000000e+00 1.000000000000000000e+00 1.000000000000000000e+00 3.000000000000000000e+00 0.000000000000000000e+00 1.000000000000000000e+00
0.000000000000000000e+00 1.000000000000000000e+00 1.000000000000000000e+00 3.000000000000000000e+00 0.000000000000000000e+00 1.000000000000000000e+00
0.000000000000000000e+00 1.000000000000000000e+00 1.000000000000000000e+00 3.000000000000000000e+00 0.000000000000000000e+00 1.000000000000000000e+00
0.000000000000000000e+00 1.000000000000000000e+00 1.000000000000000000e+00 3.000000000000000000e+00 0.000000000000000000e+00 1.000000000000000000e+00
0.000000000000000000e+00 1.899999999999999911e+00 2.000000000000000000e+00 4.000000000000000000e+00 0.000000000000000000e+00 1.000000000000000000e+00
0.000000000000000000e+00 1.320000000000000062e+00 2.000000000000000000e+00 3.060000000000000053e+00 0.000000000000000000e+00 1.000000000000000000e+00
0.000000000000000000e+00 1.000000000000000000e+00 2.000000000000000000e+00 3.000000000000000000e+00 0.000000000000000000e+00 1.000000000000000000e+00
0.000000000000000000e+00 1.000000000000000000e+00 2.000000000000000000e+00 3.000000000000000000e+00 0.000000000000000000e+00 1.000000000000000000e+00
0.000000000000000000e+00 1.000000000000000000e+00 2.000000000000000000e+00 3.000000000000000000e+00 0.000000000000000000e+00 1.000000000000000000e+00
0.000000000000000000e+00 1.000000000000000000e+00 1.439999999999999947e+00 3.000000000000000000e+00 0.000000000000000000e+00 1.000000000000000000e+00
0.000000000000000000e+00 1.000000000000000000e+00 1.000000000000000000e+00 3.000000000000000000e+00 0.000000000000000000e+00 1.000000000000000000e+00
0.000000000000000000e+00 1.000000000000000000e+00 1.000000000000000000e+00 3.000000000000000000e+00 0.000000000000000000e+00 1.000000000000000000e+00
0.000000000000000000e+00 1.000000000000000000e+00 1.000000000000000000e+00 3.000000000000000000e+00 0.000000000000000000e+00 1.000000000000000000e+00
0.000000000000000000e+00 1.000000000000000000e+00 1.000000000000000000e+00 3.000000000000000000e+00 0.000000000000000000e+00 1.000000000000000000e+00
0.000000000000000000e+00 1.000000000000000000e+00 1.000000000000000000e+00 3.000000000000000000e+00 0.000000000000000000e+00 1.000000000000000000e+00
0.000000000000000000e+00 1.000000000000000000e+00 1.360000000000000098e+00 3.000000000000000000e+00 0.000000000000000000e+00 1.000000000000000000e+00
0.000000000000000000e+00 1.000000000000000000e+00 1.800000000000000044e+00 3.000000000000000000e+00 0.000000000000000000e+00 1.000000000000000000e+00
0.000000000000000000e+00 1.000000000000000000e+00 1.560000000000000053e+00 3.000000000000000000e+00 0.000000000000000000e+00 1.000000000000000000e+00
0.000000000000000000e+00 1.000000000000000000e+00 1.899999999999999911e+00 3.000000000000000000e+00 0.000000000000000000e+00 1.000000000000000000e+00
0.000000000000000000e+00 1.000000000000000000e+00 2.000000000000000000e+00 3.000000000000000000e+00 0.000000000000000000e+00 1.000000000000000000e+00
0.000000000000000000e+00 1.000000000000000000e+00 2.000000000000000000e+00 3.000000000000000000e+00 0.000000000000000000e+00 1.000000000000000000e+00
0.000000000000000000e+00 1.000000000000000000e+00 2.000000000000000000e+00 3.000000000000000000e+00 0.000000000000000000e+00 1.000000000000000000e+00
0.000000000000000000e+00 1.000000000000000000e+00 2.000000000000000000e+00 3.000000000000000000e+00 0.000000000000000000e+00 1.000000000000000000e+00
0.000000000000000000e+00 1.000000000000000000e+00 2.000000000000000000e+00 3.000000000000000000e+00 0.000000000000000000e+00 1.000000000000000000e+00
0.000000000000000000e+00 1.000000000000000000e+00 2.000000000000000000e+00 3.000000000000000000e+00 0.000000000000000000e+00 1.000000000000000000e+00
0.000000000000000000e+00 1.000000000000000000e+00 1.699999999999999956e+00 3.000000000000000000e+00 0.000000000000000000e+00 1.000000000000000000e+00
0.000000000000000000e+00 1.000000000000000000e+00 1.840000000000000080e+00 3.000000000000000000e+00 0.000000000000000000e+00 1.000000000000000000e+00
0.000000000000000000e+00 1.000000000000000000e+00 2.000000000000000000e+00 3.000000000000000000e+00 0.000000000000000000e+00 1.000000000000000000e+00
0.000000000000000000e+00 1.000000000000000000e+00 2.000000000000000000e+00 3.000000000000000000e+00 0.000000000000000000e+00 1.000000000000000000e+00
0.000000000000000000e+00 1.000000000000000000e+00 2.000000000000000000e+00 3.000000000000000000e+00 0.000000000000000000e+00 1.000000000000000000e+00
0.000000000000000000e+00 1.520000000000000018e+00 2.000000000000000000e+00 3.000000000000000000e+00 0.000000000000000000e+00 1.000000000000000000e+00
0.000000000000000000e+00 1.439999999999999947e+00 2.000000000000000000e+00 3.000000000000000000e+00 0.000000000000000000e+00 1.000000000000000000e+00
0.000000000000000000e+00 1.340000000000000080e+00 2.000000000000000000e+00 3.000000000000000000e+00 0.000000000000000000e+00 1.000000000000000000e+00
0.000000000000000000e+00 1.000000000000000000e+00 2.000000000000000000e+00 3.000000000000000000e+00 0.000000000000000000e+00 1.000000000000000000e+00
0.000000000000000000e+00 1.000000000000000000e+00 1.860000000000000098e+00 3.000000000000000000e+00 0.000000000000000000e+00 1.000000000000000000e+00
0.000000000000000000e+00 1.000000000000000000e+00 2.000000000000000000e+00 3.000000000000000000e+00 0.000000000000000000e+00 1.000000000000000000e+00
0.000000000000000000e+00 1.000000000000000000e+00 1.320000000000000062e+00 3.000000000000000000e+00 0.000000000000000000e+00 1.000000000000000000e+00
0.000000000000000000e+00 1.540000000000000036e+00 1.000000000000000000e+00 3.000000000000000000e+00 0.000000000000000000e+00 1.000000000000000000e+00
0.000000000000000000e+00 2.000000000000000000e+00 1.000000000000000000e+00 3.000000000000000000e+00 0.000000000000000000e+00 1.000000000000000000e+00
0.000000000000000000e+00 2.000000000000000000e+00 1.000000000000000000e+00 3.000000000000000000e+00 0.000000000000000000e+00 1.000000000000000000e+00
0.000000000000000000e+00 1.520000000000000018e+00 1.000000000000000000e+00 3.000000000000000000e+00 0.000000000000000000e+00 1.000000000000000000e+00
0.000000000000000000e+00 1.000000000000000000e+00 1.699999999999999956e+00 3.000000000000000000e+00 0.000000000000000000e+00 1.000000000000000000e+00
0.000000000000000000e+00 1.000000000000000000e+00 1.739999999999999991e+00 3.000000000000000000e+00 0.000000000000000000e+00 1.000000000000000000e+00
0.000000000000000000e+00 1.000000000000000000e+00 2.000000000000000000e+00 3.000000000000000000e+00 0.000000000000000000e+00 1.000000000000000000e+00
3.299999999999999822e+00 4.700000000000000178e+00 7.000000000000000000e+00 8.619999999999999218e+00 1.879999999999999893e+00 2.317999999999999972e+01
3.220000000000000195e+00 4.660000000000000142e+00 7.000000000000000000e+00 8.000000000000000000e+00 1.820000000000000062e+00 2.244000000000000128e+01
3.879999999999999893e+00 5.000000000000000000e+00 7.000000000000000000e+00 8.339999999999999858e+00 2.000000000000000000e+00 2.171999999999999886e+01
4.000000000000000000e+00 5.000000000000000000e+00 7.459999999999999964e+00 9.000000000000000000e+00 2.000000000000000000e+00 2.223999999999999844e+01
4.000000000000000000e+00 5.000000000000000000e+00 7.900000000000000355e+00 9.000000000000000000e+00 2.000000000000000000e+00 2.376000000000000156e+01
4.000000000000000000e+00 5.000000000000000000e+00 8.000000000000000000e+00 9.759999999999999787e+00 2.000000000000000000e+00 2.400000000000000000e+01
4.000000000000000000e+00 5.000000000000000000e+00 8.000000000000000000e+00 1.000000000000000000e+01 2.000000000000000000e+00 2.400000000000000000e+01
4.000000000000000000e+00 5.000000000000000000e+00 8.000000000000000000e+00 1.000000000000000000e+01 2.819999999999999840e+00 2.430000000000000071e+01
4.000000000000000000e+00 5.000000000000000000e+00 8.000000000000000000e+00 1.000000000000000000e+01 3.000000000000000000e+00 2.555999999999999872e+01
4.000000000000000000e+00 5.000000000000000000e+00 8.000000000000000000e+00 1.000000000000000000e+01 3.000000000000000000e+00 2.587999999999999901e+01
4.000000000000000000e+00 5.000000000000000000e+00 8.460000000000000853e+00 1.090000000000000036e+01 3.000000000000000000e+00 2.717999999999999972e+01
4.000000000000000000e+00 5.000000000000000000e+00 8.000000000000000000e+00 1.100000000000000000e+01 3.000000000000000000e+00 2.866000000000000014e+01
4.000000000000000000e+00 5.000000000000000000e+00 8.000000000000000000e+00 1.100000000000000000e+01 3.979999999999999982e+00 2.962000000000000099e+01
4.000000000000000000e+00 5.000000000000000000e+00 8.000000000000000000e+00 1.141999999999999993e+01 4.000000000000000000e+00 2.994000000000000128e+01
4.000000000000000000e+00 5.000000000000000000e+00 8.000000000000000000e+00 1.200000000000000000e+01 4.000000000000000000e+00 2.955999999999999872e+01
4.000000000000000000e+00 5.000000000000000000e+00 8.000000000000000000e+00 1.224000000000000021e+01 4.000000000000000000e+00 2.900000000000000000e+01
4.000000000000000000e+00 5.000000000000000000e+00 8.140000000000000568e+00 1.264000000000000057e+01 4.320000000000000284e+00 3.000000000000000000e+01
4.000000000000000000e+00 5.000000000000000000e+00 8.880000000000000782e+00 1.290000000000000036e+01 4.780000000000000249e+00 3.000000000000000000e+01
4.000000000000000000e+00 5.000000000000000000e+00 9.000000000000000000e+00 1.201999999999999957e+01 4.940000000000000391e+00 2.898000000000000043e+01
4.000000000000000000e+00 5.000000000000000000e+00 8.240000000000000213e+00 1.200000000000000000e+01 4.160000000000000142e+00 2.800000000000000000e+01
4.000000000000000000e+00 5.000000000000000000e+00 8.000000000000000000e+00 1.200000000000000000e+01 4.000000000000000000e+00 2.730000000000000071e+01
4.000000000000000000e+00 4.759999999999999787e+00 8.019999999999999574e+00 1.200000000000000000e+01 4.000000000000000000e+00 2.553999999999999915e+01
3.560000000000000053e+00 4.000000000000000000e+00 8.859999999999999432e+00 1.183999999999999986e+01 3.759999999999999787e+00 2.450000000000000000e+01
3.000000000000000000e+00 4.000000000000000000e+00 8.320000000000000284e+00 1.100000000000000000e+01 3.000000000000000000e+00 2.369999999999999929e+01
3.000000000000000000e+00 4.000000000000000000e+00 8.000000000000000000e+00 1.080000000000000071e+01 3.000000000000000000e+00 2.400000000000000000e+01
3.000000000000000000e+00 4.000000000000000000e+00 8.000000000000000000e+00 1.000000000000000000e+01 3.000000000000000000e+00 2.394000000000000128e+01
3.000000000000000000e+00 4.000000000000000000e+00 8.000000000000000000e+00 1.048000000000000043e+01 3.000000000000000000e+00 2.217999999999999972e+01
3.000000000000000000e+00 4.000000000000000000e+00 7.299999999999999822e+00 1.003999999999999915e+01 3.000000000000000000e+00 2.200000000000000000e+01
3.000000000000000000e+00 4.000000000000000000e+00 7.219999999999999751e+00 1.011999999999999922e+01 2.359999999999999876e+00 2.244000000000000128e+01
3.459999999999999964e+00 4.000000000000000000e+00 7.179999999999999716e+00 1.011999999999999922e+01 2.779999999999999805e+00 2.344000000000000128e+01
3.479999999999999982e+00 4.000000000000000000e+00 7.000000000000000000e+00 1.046000000000000085e+01 2.000000000000000000e+00 2.303999999999999915e+01
3.580000000000000071e+00 4.000000000000000000e+00 7.000000000000000000e+00 1.100000000000000000e+01 2.000000000000000000e+00 2.300000000000000000e+01
4.000000000000000000e+00 4.000000000000000000e+00 7.000000000000000000e+00 1.072000000000000064e+01 2.000000000000000000e+00 2.250000000000000000e+01
4.000000000000000000e+00 4.000000000000000000e+00 7.000000000000000000e+00 1.091999999999999993e+01 2.000000000000000000e+00 2.233999999999999986e+01
3.620000000000000107e+00 4.000000000000000000e+00 7.019999999999999574e+00 1.100000000000000000e+01 2.000000000000000000e+00 2.200000000000000000e+01
4.000000000000000000e+00 4.000000000000000000e+00 8.000000000000000000e+00 1.100000000000000000e+01 2.000000000000000000e+00 2.200000000000000000e+01
4.000000000000000000e+00 4.000000000000000000e+00 8.000000000000000000e+00 1.025999999999999979e+01 2.000000000000000000e+00 2.285999999999999943e+01
4.000000000000000000e+00 4.000000000000000000e+00 8.000000000000000000e+00 1.000000000000000000e+01 2.040000000000000036e+00 2.300000000000000000e+01
3.740000000000000213e+00 4.000000000000000000e+00 8.000000000000000000e+00 1.000000000000000000e+01 3.000000000000000000e+00 2.262000000000000099e+01
3.000000000000000000e+00 4.000000000000000000e+00 8.000000000000000000e+00 1.000000000000000000e+01 3.000000000000000000e+00 2.233999999999999986e+01
2.000000000000000000e+00 4.000000000000000000e+00 4.980000000000000426e+00 9.480000000000000426e+00 3.000000000000000000e+00 1.400000000000000000e+01
2.000000000000000000e+00 3.839999999999999858e+00 5.000000000000000000e+00 9.000000000000000000e+00 2.220000000000000195e+00 1.403999999999999915e+01
2.000000000000000000e+00 3.600000000000000089e+00 5.000000000000000000e+00 9.000000000000000000e+00 2.000000000000000000e+00 1.400000000000000000e+01
2.000000000000000000e+00 3.419999999999999929e+00 5.000000000000000000e+00 9.000000000000000000e+00 2.000000000000000000e+00 1.367999999999999972e+01
2.000000000000000000e+00 3.000000000000000000e+00 5.000000000000000000e+00 8.740000000000000213e+00 2.000000000000000000e+00 1.408000000000000007e+01
2.000000000000000000e+00 3.000000000000000000e+00 5.000000000000000000e+00 8.000000000000000000e+00 2.000000000000000000e+00 1.348000000000000043e+01
2.000000000000000000e+00 3.000000000000000000e+00 5.000000000000000000e+00 8.000000000000000000e+00 2.000000000000000000e+00 1.400000000000000000e+01
2.000000000000000000e+00 3.000000000000000000e+00 5.919999999999999929e+00 8.000000000000000000e+00 2.000000000000000000e+00 1.400000000000000000e+01
2.000000000000000000e+00 3.000000000000000000e+00 6.000000000000000000e+00 8.080000000000000071e+00 2.000000000000000000e+00 1.400000000000000000e+01
2.000000000000000000e+00 3.000000000000000000e+00 6.000000000000000000e+00 8.640000000000000568e+00 2.000000000000000000e+00 1.400000000000000000e+01
2.000000000000000000e+00 3.000000000000000000e+00 6.000000000000000000e+00 8.080000000000000071e+00 2.000000000000000000e+00 1.475999999999999979e+01
2.000000000000000000e+00 3.000000000000000000e+00 6.000000000000000000e+00 9.000000000000000000e+00 2.120000000000000107e+00 1.500000000000000000e+01
2.200000000000000178e+00 3.000000000000000000e+00 6.139999999999999680e+00 9.000000000000000000e+00 3.000000000000000000e+00 1.575999999999999979e+01
2.979999999999999982e+00 3.000000000000000000e+00 7.000000000000000000e+00 9.000000000000000000e+00 3.000000000000000000e+00 1.692000000000000171e+01
3.000000000000000000e+00 3.000000000000000000e+00 7.000000000000000000e+00 9.000000000000000000e+00 2.799999999999999822e+00 1.600000000000000000e+01
3.000000000000000000e+00 3.359999999999999876e+00 7.000000000000000000e+00 9.000000000000000000e+00 2.000000000000000000e+00 1.550000000000000000e+01
3.000000000000000000e+00 3.660000000000000142e+00 7.000000000000000000e+00 9.720000000000000639e+00 2.000000000000000000e+00 1.600000000000000000e+01
3.000000000000000000e+00 3.560000000000000053e+00 7.000000000000000000e+00 1.000000000000000000e+01 2.000000000000000000e+00 1.619999999999999929e+01
3.000000000000000000e+00 3.379999999999999893e+00 7.000000000000000000e+00 1.000000000000000000e+01 2.100000000000000089e+00 1.703999999999999915e+01
3.000000000000000000e+00 3.580000000000000071e+00 7.000000000000000000e+00 1.000000000000000000e+01 2.879999999999999893e+00 1.800000000000000000e+01
3.000000000000000000e+00 4.000000000000000000e+00 7.000000000000000000e+00 1.098000000000000043e+01 3.000000000000000000e+00 1.800000000000000000e+01
3.000000000000000000e+00 4.000000000000000000e+00 7.919999999999999929e+00 1.100000000000000000e+01 3.000000000000000000e+00 1.826000000000000156e+01
3.000000000000000000e+00 4.000000000000000000e+00 8.000000000000000000e+00 1.100000000000000000e+01 3.000000000000000000e+00 1.910000000000000142e+01
3.000000000000000000e+00 4.000000000000000000e+00 8.000000000000000000e+00 1.100000000000000000e+01 3.000000000000000000e+00 1.989999999999999858e+01
3.000000000000000000e+00 4.000000000000000000e+00 8.000000000000000000e+00 1.100000000000000000e+01 3.000000000000000000e+00 2.033999999999999986e+01
3.000000000000000000e+00 4.000000000000000000e+00 8.279999999999999361e+00 1.100000000000000000e+01 3.000000000000000000e+00 2.096000000000000085e+01
3.000000000000000000e+00 4.000000000000000000e+00 8.039999999999999147e+00 1.100000000000000000e+01 3.000000000000000000e+00 2.100000000000000000e+01
3.000000000000000000e+00 4.000000000000000000e+00 8.000000000000000000e+00 1.046000000000000085e+01 3.000000000000000000e+00 2.048000000000000043e+01
3.000000000000000000e+00 4.000000000000000000e+00 8.000000000000000000e+00 1.000000000000000000e+01 3.000000000000000000e+00 2.035999999999999943e+01
3.000000000000000000e+00 4.000000000000000000e+00 8.000000000000000000e+00 1.000000000000000000e+01 2.120000000000000107e+00 2.007999999999999829e+01
3.000000000000000000e+00 4.000000000000000000e+00 8.000000000000000000e+00 9.980000000000000426e+00 2.000000000000000000e+00 2.001999999999999957e+01
3.000000000000000000e+00 4.000000000000000000e+00 8.000000000000000000e+00 9.000000000000000000e+00 2.000000000000000000e+00 2.028000000000000114e+01
3.000000000000000000e+00 4.000000000000000000e+00 8.000000000000000000e+00 9.900000000000000355e+00 2.000000000000000000e+00 1.905999999999999872e+01
2.839999999999999858e+00 4.000000000000000000e+00 7.639999999999999680e+00 9.000000000000000000e+00 2.000000000000000000e+00 1.848000000000000043e+01
2.339999999999999858e+00 4.000000000000000000e+00 7.900000000000000355e+00 9.000000000000000000e+00 2.000000000000000000e+00 1.800000000000000000e+01
2.220000000000000195e+00 3.580000000000000071e+00 8.000000000000000000e+00 9.000000000000000000e+00 2.000000000000000000e+00 1.842000000000000171e+01
2.000000000000000000e+00 3.100000000000000089e+00 8.000000000000000000e+00 8.740000000000000213e+00 2.000000000000000000e+00 1.800000000000000000e+01
2.000000000000000000e+00 3.120000000000000107e+00 8.720000000000000639e+00 8.199999999999999289e+00 2.000000000000000000e+00 1.800000000000000000e+01
2.000000000000000000e+00 3.680000000000000160e+00 9.000000000000000000e+00 9.000000000000000000e+00 2.000000000000000000e+00 1.760000000000000142e+01
2.000000000000000000e+00 4.000000000000000000e+00 9.000000000000000000e+00 8.740000000000000213e+00 2.000000000000000000e+00 1.717999999999999972e+01
5.124000000000000199e+01 4.734000000000000341e+01 2.100000000000000000e+01 2.992000000000000171e+01 1.280000000000000071e+01 2.423999999999999844e+01
5.028000000000000114e+01 4.593999999999999773e+01 2.100000000000000000e+01 2.883999999999999986e+01 1.200000000000000000e+01 2.300000000000000000e+01
4.985999999999999943e+01 4.552000000000000313e+01 2.046000000000000085e+01 2.737999999999999901e+01 1.150000000000000000e+01 2.267999999999999972e+01
4.864000000000000057e+01 4.388000000000000256e+01 1.930000000000000071e+01 2.651999999999999957e+01 1.100000000000000000e+01 2.200000000000000000e+01
4.592000000000000171e+01 4.170000000000000284e+01 1.900000000000000000e+01 2.600000000000000000e+01 1.100000000000000000e+01 2.162000000000000099e+01
4.028000000000000114e+01 3.634000000000000341e+01 1.796000000000000085e+01 2.494000000000000128e+01 1.053999999999999915e+01 2.128000000000000114e+01
3.019999999999999929e+01 3.235999999999999943e+01 1.696000000000000085e+01 2.433999999999999986e+01 9.439999999999999503e+00 1.917999999999999972e+01
2.748000000000000043e+01 2.923999999999999844e+01 1.546000000000000085e+01 2.226000000000000156e+01 8.919999999999999929e+00 1.801999999999999957e+01
2.535999999999999943e+01 2.510000000000000142e+01 1.500000000000000000e+01 2.100000000000000000e+01 8.000000000000000000e+00 1.600000000000000000e+01
2.385999999999999943e+01 2.396000000000000085e+01 1.400000000000000000e+01 2.005999999999999872e+01 8.000000000000000000e+00 1.623999999999999844e+01
2.269999999999999929e+01 2.217999999999999972e+01 1.400000000000000000e+01 1.994000000000000128e+01 8.000000000000000000e+00 1.626000000000000156e+01
2.189999999999999858e+01 2.137999999999999901e+01 1.398000000000000043e+01 1.944000000000000128e+01 8.000000000000000000e+00 1.673999999999999844e+01
2.200000000000000000e+01 1.964000000000000057e+01 1.380000000000000071e+01 1.817999999999999972e+01 7.959999999999999964e+00 1.717999999999999972e+01
2.130000000000000071e+01 1.857999999999999829e+01 1.400000000000000000e+01 1.739999999999999858e+01 7.500000000000000000e+00 1.751999999999999957e+01
2.069999999999999929e+01 1.771999999999999886e+01 1.374000000000000021e+01 1.700000000000000000e+01 7.059999999999999609e+00 1.800000000000000000e+01
1.980000000000000071e+01 1.662000000000000099e+01 1.300000000000000000e+01 1.696000000000000085e+01 7.000000000000000000e+00 1.800000000000000000e+01
1.900000000000000000e+01 1.621999999999999886e+01 1.300000000000000000e+01 1.600000000000000000e+01 7.000000000000000000e+00 1.800000000000000000e+01
1.892000000000000171e+01 1.700000000000000000e+01 1.343999999999999950e+01 1.619999999999999929e+01 7.000000000000000000e+00 1.800000000000000000e+01
1.800000000000000000e+01 1.700000000000000000e+01 1.366000000000000014e+01 1.632000000000000028e+01 7.000000000000000000e+00 1.800000000000000000e+01
1.800000000000000000e+01 1.605999999999999872e+01 1.319999999999999929e+01 1.619999999999999929e+01 6.400000000000000355e+00 1.750000000000000000e+01
1.750000000000000000e+01 1.435999999999999943e+01 1.300000000000000000e+01 1.590000000000000036e+01 6.000000000000000000e+00 1.687999999999999901e+01
1.623999999999999844e+01 1.309999999999999964e+01 1.230000000000000071e+01 1.548000000000000043e+01 6.000000000000000000e+00 1.637999999999999901e+01
1.593999999999999950e+01 1.267999999999999972e+01 1.200000000000000000e+01 1.503999999999999915e+01 5.639999999999999680e+00 1.564000000000000057e+01
1.600000000000000000e+01 1.200000000000000000e+01 1.200000000000000000e+01 1.500000000000000000e+01 5.000000000000000000e+00 1.572000000000000064e+01
1.600000000000000000e+01 1.200000000000000000e+01 1.200000000000000000e+01 1.488000000000000078e+01 5.700000000000000178e+00 1.524000000000000021e+01
1.600000000000000000e+01 1.227999999999999936e+01 1.200000000000000000e+01 1.500000000000000000e+01 6.000000000000000000e+00 1.588000000000000078e+01
1.596000000000000085e+01 1.277999999999999936e+01 1.200000000000000000e+01 1.527999999999999936e+01 6.000000000000000000e+00 1.600000000000000000e+01
1.580000000000000071e+01 1.200000000000000000e+01 1.146000000000000085e+01 1.516000000000000014e+01 6.000000000000000000e+00 1.600000000000000000e+01
1.590000000000000036e+01 1.225999999999999979e+01 1.190000000000000036e+01 1.600000000000000000e+01 6.000000000000000000e+00 1.678000000000000114e+01
1.585999999999999943e+01 1.300000000000000000e+01 1.243999999999999950e+01 1.653999999999999915e+01 6.879999999999999893e+00 1.723999999999999844e+01
1.538000000000000078e+01 1.300000000000000000e+01 1.300000000000000000e+01 1.700000000000000000e+01 6.639999999999999680e+00 1.735999999999999943e+01
1.519999999999999929e+01 1.300000000000000000e+01 1.393999999999999950e+01 1.700000000000000000e+01 7.000000000000000000e+00 1.771999999999999886e+01
1.541999999999999993e+01 1.300000000000000000e+01 1.367999999999999972e+01 1.700000000000000000e+01 7.000000000000000000e+00 1.789999999999999858e+01
1.506000000000000050e+01 1.250000000000000000e+01 1.300000000000000000e+01 1.700000000000000000e+01 7.000000000000000000e+00 1.700000000000000000e+01
1.422000000000000064e+01 1.200000000000000000e+01 1.300000000000000000e+01 1.700000000000000000e+01 6.240000000000000213e+00 1.700000000000000000e+01
1.400000000000000000e+01 1.200000000000000000e+01 1.343999999999999950e+01 1.700000000000000000e+01 6.000000000000000000e+00 1.682000000000000028e+01
1.396000000000000085e+01 1.151999999999999957e+01 1.400000000000000000e+01 1.612000000000000099e+01 5.419999999999999929e+00 1.600000000000000000e+01
1.301999999999999957e+01 1.096000000000000085e+01 1.391999999999999993e+01 1.580000000000000071e+01 5.000000000000000000e+00 1.591999999999999993e+01
1.264000000000000057e+01 1.000000000000000000e+01 1.300000000000000000e+01 1.425999999999999979e+01 5.000000000000000000e+00 1.500000000000000000e+01
1.200000000000000000e+01 9.960000000000000853e+00 1.256000000000000050e+01 1.364000000000000057e+01 5.000000000000000000e+00 1.501999999999999957e+01
1.382000000000000028e+01 1.225999999999999979e+01 1.600000000000000000e+01 1.678000000000000114e+01 6.000000000000000000e+00 1.377999999999999936e+01
1.341999999999999993e+01 1.200000000000000000e+01 1.548000000000000043e+01 1.669999999999999929e+01 5.820000000000000284e+00 1.327999999999999936e+01
1.472000000000000064e+01 1.200000000000000000e+01 1.500000000000000000e+01 1.626000000000000156e+01 5.620000000000000107e+00 1.330000000000000071e+01
1.500000000000000000e+01 1.280000000000000071e+01 1.667999999999999972e+01 1.646000000000000085e+01 5.320000000000000284e+00 1.351999999999999957e+01
1.517999999999999972e+01 1.300000000000000000e+01 1.950000000000000000e+01 1.700000000000000000e+01 5.879999999999999893e+00 1.330000000000000071e+01
1.657999999999999829e+01 1.353999999999999915e+01 2.021999999999999886e+01 1.721999999999999886e+01 6.000000000000000000e+00 1.351999999999999957e+01
1.705999999999999872e+01 1.330000000000000071e+01 2.100000000000000000e+01 1.789999999999999858e+01 6.000000000000000000e+00 1.400000000000000000e+01
1.828000000000000114e+01 1.477999999999999936e+01 2.187999999999999901e+01 1.978000000000000114e+01 6.879999999999999893e+00 1.408000000000000007e+01
2.001999999999999957e+01 1.642000000000000171e+01 2.300000000000000000e+01 2.133999999999999986e+01 7.500000000000000000e+00 1.569999999999999929e+01
2.400000000000000000e+01 1.867999999999999972e+01 2.378000000000000114e+01 2.180000000000000071e+01 8.000000000000000000e+00 1.607999999999999829e+01
2.619999999999999929e+01 2.332000000000000028e+01 2.467999999999999972e+01 2.200000000000000000e+01 8.000000000000000000e+00 1.700000000000000000e+01
2.651999999999999957e+01 2.400000000000000000e+01 2.573999999999999844e+01 2.200000000000000000e+01 8.220000000000000639e+00 1.757999999999999829e+01
2.600000000000000000e+01 2.400000000000000000e+01 2.600000000000000000e+01 2.200000000000000000e+01 8.000000000000000000e+00 1.800000000000000000e+01
2.592000000000000171e+01 2.332000000000000028e+01 2.489999999999999858e+01 2.119999999999999929e+01 8.000000000000000000e+00 1.800000000000000000e+01
2.698000000000000043e+01 2.410000000000000142e+01 2.312000000000000099e+01 2.100000000000000000e+01 8.000000000000000000e+00 1.800000000000000000e+01
3.000000000000000000e+01 2.576000000000000156e+01 2.296000000000000085e+01 2.066000000000000014e+01 8.000000000000000000e+00 1.807999999999999829e+01
3.000000000000000000e+01 2.600000000000000000e+01 2.221999999999999886e+01 2.000000000000000000e+01 8.000000000000000000e+00 1.800000000000000000e+01
3.021999999999999886e+01 2.616000000000000014e+01 2.132000000000000028e+01 1.819999999999999929e+01 8.000000000000000000e+00 1.800000000000000000e+01
3.001999999999999957e+01 2.600000000000000000e+01 2.100000000000000000e+01 1.623999999999999844e+01 8.000000000000000000e+00 1.712000000000000099e+01
2.823999999999999844e+01 2.500000000000000000e+01 2.092000000000000171e+01 1.530000000000000071e+01 7.719999999999999751e+00 1.667999999999999972e+01
2.755999999999999872e+01 2.153999999999999915e+01 2.100000000000000000e+01 1.525999999999999979e+01 7.019999999999999574e+00 1.600000000000000000e+01
2.900000000000000000e+01 2.176000000000000156e+01 2.017999999999999972e+01 1.535999999999999943e+01 7.000000000000000000e+00 1.541999999999999993e+01
2.942000000000000171e+01 2.278000000000000114e+01 2.000000000000000000e+01 1.664000000000000057e+01 7.700000000000000178e+00 1.500000000000000000e+01
3.000000000000000000e+01 2.300000000000000000e+01 1.955999999999999872e+01 1.673999999999999844e+01 7.320000000000000284e+00 1.464000000000000057e+01
2.826000000000000156e+01 2.230000000000000071e+01 1.992000000000000171e+01 1.657999999999999829e+01 7.099999999999999645e+00 1.467999999999999972e+01
2.430000000000000071e+01 2.173999999999999844e+01 2.019999999999999929e+01 1.698000000000000043e+01 7.000000000000000000e+00 1.443999999999999950e+01
2.500000000000000000e+01 2.323999999999999844e+01 2.100000000000000000e+01 1.700000000000000000e+01 7.000000000000000000e+00 1.517999999999999972e+01
2.553999999999999915e+01 2.444000000000000128e+01 2.153999999999999915e+01 1.796000000000000085e+01 7.000000000000000000e+00 1.533999999999999986e+01
2.500000000000000000e+01 2.500000000000000000e+01 2.194000000000000128e+01 1.800000000000000000e+01 7.000000000000000000e+00 1.600000000000000000e+01
2.582000000000000028e+01 2.614000000000000057e+01 2.185999999999999943e+01 1.900000000000000000e+01 7.320000000000000284e+00 1.600000000000000000e+01
2.721999999999999886e+01 3.178000000000000114e+01 2.244000000000000128e+01 1.980000000000000071e+01 8.300000000000000711e+00 1.732000000000000028e+01
2.846000000000000085e+01 3.520000000000000284e+01 2.387999999999999901e+01 2.166000000000000014e+01 9.199999999999999289e+00 1.901999999999999957e+01
3.284000000000000341e+01 3.834000000000000341e+01 2.553999999999999915e+01 2.312000000000000099e+01 1.008000000000000007e+01 2.110000000000000142e+01
3.642000000000000171e+01 4.138000000000000256e+01 2.762000000000000099e+01 2.353999999999999915e+01 1.100000000000000000e+01 2.244000000000000128e+01
3.775999999999999801e+01 4.282000000000000028e+01 2.764000000000000057e+01 2.433999999999999986e+01 1.100000000000000000e+01 2.298000000000000043e+01
3.860000000000000142e+01 4.342000000000000171e+01 2.737999999999999901e+01 2.500000000000000000e+01 1.100000000000000000e+01 2.300000000000000000e+01
3.888000000000000256e+01 4.279999999999999716e+01 2.700000000000000000e+01 2.500000000000000000e+01 1.100000000000000000e+01 2.217999999999999972e+01
3.775999999999999801e+01 4.150000000000000000e+01 2.671999999999999886e+01 2.500000000000000000e+01 1.100000000000000000e+01 2.200000000000000000e+01
3.771999999999999886e+01 4.100000000000000000e+01 2.600000000000000000e+01 2.500000000000000000e+01 1.100000000000000000e+01 2.200000000000000000e+01
3.693999999999999773e+01 4.052000000000000313e+01 2.566000000000000014e+01 2.433999999999999986e+01 1.100000000000000000e+01 2.242000000000000171e+01
1.035999999999999943e+01 1.011999999999999922e+01 1.209999999999999964e+01 1.332000000000000028e+01 5.000000000000000000e+00 1.308000000000000007e+01
1.169999999999999929e+01 1.100000000000000000e+01 1.450000000000000000e+01 1.491999999999999993e+01 5.280000000000000249e+00 1.338000000000000078e+01
1.246000000000000085e+01 1.150000000000000000e+01 1.553999999999999915e+01 1.564000000000000057e+01 7.000000000000000000e+00 1.400000000000000000e+01
1.319999999999999929e+01 1.275999999999999979e+01 1.789999999999999858e+01 1.719999999999999929e+01 8.000000000000000000e+00 1.432000000000000028e+01
1.391999999999999993e+01 1.400000000000000000e+01 1.866000000000000014e+01 1.864000000000000057e+01 8.380000000000000782e+00 1.600000000000000000e+01
1.411999999999999922e+01 1.477999999999999936e+01 2.023999999999999844e+01 1.971999999999999886e+01 9.000000000000000000e+00 1.662000000000000099e+01
1.400000000000000000e+01 1.598000000000000043e+01 2.100000000000000000e+01 2.005999999999999872e+01 9.859999999999999432e+00 1.800000000000000000e+01
1.466000000000000014e+01 1.633999999999999986e+01 2.100000000000000000e+01 2.064000000000000057e+01 1.000000000000000000e+01 1.800000000000000000e+01
1.488000000000000078e+01 1.700000000000000000e+01 2.166000000000000014e+01 2.137999999999999901e+01 1.000000000000000000e+01 1.800000000000000000e+01
1.514000000000000057e+01 1.700000000000000000e+01 2.292000000000000171e+01 2.200000000000000000e+01 1.000000000000000000e+01 1.800000000000000000e+01
1.600000000000000000e+01 1.746000000000000085e+01 2.267999999999999972e+01 2.271999999999999886e+01 1.030000000000000071e+01 1.896000000000000085e+01
1.524000000000000021e+01 1.735999999999999943e+01 2.250000000000000000e+01 2.300000000000000000e+01 1.000000000000000000e+01 1.900000000000000000e+01
1.467999999999999972e+01 1.700000000000000000e+01 2.269999999999999929e+01 2.278000000000000114e+01 9.240000000000000213e+00 1.900000000000000000e+01
1.401999999999999957e+01 1.682000000000000028e+01 2.112000000000000099e+01 2.200000000000000000e+01 8.560000000000000497e+00 1.867999999999999972e+01
1.500000000000000000e+01 1.600000000000000000e+01 2.110000000000000142e+01 2.133999999999999986e+01 8.900000000000000355e+00 1.798000000000000043e+01
1.500000000000000000e+01 1.600000000000000000e+01 2.100000000000000000e+01 2.032000000000000028e+01 8.000000000000000000e+00 1.732000000000000028e+01
1.500000000000000000e+01 1.588000000000000078e+01 2.112000000000000099e+01 2.051999999999999957e+01 8.000000000000000000e+00 1.596000000000000085e+01
1.500000000000000000e+01 1.519999999999999929e+01 2.200000000000000000e+01 2.000000000000000000e+01 8.000000000000000000e+00 1.580000000000000071e+01
1.500000000000000000e+01 1.469999999999999929e+01 2.132000000000000028e+01 1.951999999999999957e+01 8.000000000000000000e+00 1.577999999999999936e+01
1.424000000000000021e+01 1.450000000000000000e+01 2.037999999999999901e+01 1.889999999999999858e+01 8.000000000000000000e+00 1.500000000000000000e+01
1.400000000000000000e+01 1.353999999999999915e+01 1.969999999999999929e+01 1.800000000000000000e+01 8.000000000000000000e+00 1.450000000000000000e+01
1.400000000000000000e+01 1.300000000000000000e+01 1.807999999999999829e+01 1.692000000000000171e+01 7.360000000000000320e+00 1.411999999999999922e+01
1.400000000000000000e+01 1.300000000000000000e+01 1.800000000000000000e+01 1.600000000000000000e+01 7.000000000000000000e+00 1.493999999999999950e+01
1.308000000000000007e+01 1.275999999999999979e+01 1.800000000000000000e+01 1.575999999999999979e+01 7.000000000000000000e+00 1.422000000000000064e+01
1.222000000000000064e+01 1.203999999999999915e+01 1.733999999999999986e+01 1.500000000000000000e+01 7.000000000000000000e+00 1.400000000000000000e+01
1.159999999999999964e+01 1.141999999999999993e+01 1.600000000000000000e+01 1.488000000000000078e+01 7.000000000000000000e+00 1.400000000000000000e+01
1.100000000000000000e+01 1.080000000000000071e+01 1.577999999999999936e+01 1.411999999999999922e+01 6.240000000000000213e+00 1.400000000000000000e+01
1.150000000000000000e+01 1.108000000000000007e+01 1.450000000000000000e+01 1.400000000000000000e+01 6.000000000000000000e+00 1.388000000000000078e+01
1.200000000000000000e+01 1.291999999999999993e+01 1.516000000000000014e+01 1.400000000000000000e+01 6.000000000000000000e+00 1.458000000000000007e+01
1.277999999999999936e+01 1.282000000000000028e+01 1.590000000000000036e+01 1.393999999999999950e+01 6.000000000000000000e+00 1.441999999999999993e+01
1.300000000000000000e+01 1.300000000000000000e+01 1.762000000000000099e+01 1.377999999999999936e+01 6.000000000000000000e+00 1.408000000000000007e+01
1.290000000000000036e+01 1.227999999999999936e+01 1.800000000000000000e+01 1.440000000000000036e+01 6.000000000000000000e+00 1.500000000000000000e+01
1.377999999999999936e+01 1.246000000000000085e+01 1.787999999999999901e+01 1.506000000000000050e+01 6.799999999999999822e+00 1.500000000000000000e+01
1.400000000000000000e+01 1.300000000000000000e+01 1.885999999999999943e+01 1.553999999999999915e+01 7.000000000000000000e+00 1.500000000000000000e+01
1.491999999999999993e+01 1.346000000000000085e+01 1.930000000000000071e+01 1.628000000000000114e+01 7.000000000000000000e+00 1.500000000000000000e+01
1.603999999999999915e+01 1.403999999999999915e+01 2.062000000000000099e+01 1.676000000000000156e+01 7.000000000000000000e+00 1.500000000000000000e+01
1.700000000000000000e+01 1.500000000000000000e+01 2.121999999999999886e+01 1.739999999999999858e+01 7.000000000000000000e+00 1.522000000000000064e+01
1.762000000000000099e+01 1.689999999999999858e+01 2.280000000000000071e+01 1.828000000000000114e+01 7.200000000000000178e+00 1.566000000000000014e+01
1.800000000000000000e+01 1.760000000000000142e+01 2.214000000000000057e+01 1.905999999999999872e+01 8.000000000000000000e+00 1.561999999999999922e+01
1.800000000000000000e+01 1.866000000000000014e+01 2.300000000000000000e+01 1.969999999999999929e+01 8.000000000000000000e+00 1.667999999999999972e+01
9.660000000000000142e+00 1.190000000000000036e+01 8.618000000000000682e+01 1.090000000000000036e+01 5.000000000000000000e+00 5.000000000000000000e+00
1.117999999999999972e+01 1.314000000000000057e+01 9.195999999999999375e+01 1.188000000000000078e+01 5.780000000000000249e+00 6.519999999999999574e+00
1.200000000000000000e+01 1.474000000000000021e+01 9.715999999999999659e+01 1.267999999999999972e+01 6.500000000000000000e+00 9.000000000000000000e+00
1.346000000000000085e+01 1.642000000000000171e+01 1.007600000000000051e+02 1.300000000000000000e+01 7.000000000000000000e+00 9.220000000000000639e+00
1.490000000000000036e+01 1.896000000000000085e+01 1.010400000000000063e+02 1.325999999999999979e+01 7.700000000000000178e+00 1.000000000000000000e+01
1.503999999999999915e+01 2.017999999999999972e+01 1.021800000000000068e+02 1.393999999999999950e+01 8.000000000000000000e+00 1.000000000000000000e+01
1.582000000000000028e+01 2.100000000000000000e+01 1.014800000000000040e+02 1.400000000000000000e+01 8.000000000000000000e+00 1.000000000000000000e+01
1.600000000000000000e+01 2.100000000000000000e+01 9.890000000000000568e+01 1.400000000000000000e+01 8.000000000000000000e+00 1.000000000000000000e+01
1.600000000000000000e+01 2.100000000000000000e+01 9.412000000000000455e+01 1.364000000000000057e+01 8.000000000000000000e+00 1.000000000000000000e+01
1.600000000000000000e+01 2.100000000000000000e+01 9.348000000000000398e+01 1.288000000000000078e+01 8.000000000000000000e+00 1.000000000000000000e+01
1.617999999999999972e+01 2.194000000000000128e+01 9.243999999999999773e+01 1.266000000000000014e+01 8.000000000000000000e+00 1.000000000000000000e+01
1.671999999999999886e+01 2.300000000000000000e+01 9.062000000000000455e+01 1.200000000000000000e+01 8.000000000000000000e+00 9.580000000000000071e+00
1.687999999999999901e+01 2.348000000000000043e+01 8.885999999999999943e+01 1.275999999999999979e+01 8.000000000000000000e+00 8.000000000000000000e+00
1.721999999999999886e+01 2.473999999999999844e+01 8.565999999999999659e+01 1.493999999999999950e+01 8.339999999999999858e+00 8.900000000000000355e+00
1.700000000000000000e+01 2.457999999999999829e+01 8.562000000000000455e+01 1.500000000000000000e+01 8.000000000000000000e+00 9.000000000000000000e+00
1.707999999999999829e+01 2.482000000000000028e+01 8.540000000000000568e+01 1.500000000000000000e+01 8.000000000000000000e+00 9.000000000000000000e+00
1.800000000000000000e+01 2.567999999999999972e+01 8.628000000000000114e+01 1.500000000000000000e+01 8.000000000000000000e+00 9.000000000000000000e+00
1.800000000000000000e+01 2.600000000000000000e+01 8.743999999999999773e+01 1.500000000000000000e+01 8.000000000000000000e+00 9.439999999999999503e+00
1.871999999999999886e+01 2.600000000000000000e+01 8.848000000000000398e+01 1.524000000000000021e+01 8.000000000000000000e+00 1.000000000000000000e+01
1.800000000000000000e+01 2.628000000000000114e+01 8.929999999999999716e+01 1.503999999999999915e+01 8.000000000000000000e+00 1.000000000000000000e+01
1.760000000000000142e+01 2.596000000000000085e+01 8.914000000000000057e+01 1.500000000000000000e+01 8.039999999999999147e+00 1.000000000000000000e+01
1.700000000000000000e+01 2.498000000000000043e+01 8.715999999999999659e+01 1.503999999999999915e+01 8.699999999999999289e+00 1.000000000000000000e+01
1.648000000000000043e+01 2.414000000000000057e+01 8.373999999999999488e+01 1.432000000000000028e+01 8.000000000000000000e+00 1.000000000000000000e+01
1.566000000000000014e+01 2.237999999999999901e+01 8.081999999999999318e+01 1.248000000000000043e+01 8.000000000000000000e+00 1.000000000000000000e+01
1.500000000000000000e+01 2.110000000000000142e+01 8.028000000000000114e+01 1.183999999999999986e+01 8.000000000000000000e+00 1.000000000000000000e+01
1.500000000000000000e+01 2.114000000000000057e+01 7.976000000000000512e+01 1.148000000000000043e+01 8.000000000000000000e+00 1.000000000000000000e+01
1.464000000000000057e+01 2.028000000000000114e+01 7.778000000000000114e+01 1.132000000000000028e+01 8.000000000000000000e+00 1.000000000000000000e+01
1.400000000000000000e+01 2.000000000000000000e+01 7.478000000000000114e+01 1.127999999999999936e+01 8.000000000000000000e+00 1.000000000000000000e+01
1.351999999999999957e+01 2.000000000000000000e+01 7.234000000000000341e+01 1.153999999999999915e+01 8.000000000000000000e+00 9.400000000000000355e+00
1.400000000000000000e+01 2.001999999999999957e+01 7.015999999999999659e+01 1.141999999999999993e+01 8.000000000000000000e+00 9.179999999999999716e+00
1.400000000000000000e+01 2.000000000000000000e+01 6.914000000000000057e+01 1.117999999999999972e+01 8.000000000000000000e+00 9.140000000000000568e+00
1.400000000000000000e+01 2.000000000000000000e+01 6.970000000000000284e+01 1.100000000000000000e+01 8.000000000000000000e+00 9.000000000000000000e+00
1.400000000000000000e+01 2.000000000000000000e+01 7.295999999999999375e+01 1.100000000000000000e+01 7.620000000000000107e+00 9.000000000000000000e+00
1.400000000000000000e+01 2.000000000000000000e+01 7.600000000000000000e+01 1.143999999999999950e+01 7.459999999999999964e+00 9.000000000000000000e+00
1.400000000000000000e+01 1.980000000000000071e+01 7.829999999999999716e+01 1.200000000000000000e+01 8.000000000000000000e+00 9.000000000000000000e+00
1.350000000000000000e+01 1.900000000000000000e+01 7.993999999999999773e+01 1.206000000000000050e+01 8.000000000000000000e+00 9.279999999999999361e+00
1.300000000000000000e+01 1.900000000000000000e+01 7.928000000000000114e+01 1.369999999999999929e+01 8.859999999999999432e+00 1.090000000000000036e+01
1.300000000000000000e+01 1.885999999999999943e+01 8.000000000000000000e+01 1.488000000000000078e+01 9.000000000000000000e+00 1.100000000000000000e+01
1.300000000000000000e+01 1.839999999999999858e+01 8.043999999999999773e+01 1.500000000000000000e+01 9.000000000000000000e+00 1.100000000000000000e+01
1.300000000000000000e+01 1.773999999999999844e+01 8.114000000000000057e+01 1.500000000000000000e+01 9.000000000000000000e+00 1.200000000000000000e+01
0.000000000000000000e+00 2.000000000000000000e+00 2.299999999999999822e+00 1.000000000000000000e+00 0.000000000000000000e+00 1.639999999999999902e+00
0.000000000000000000e+00 2.000000000000000000e+00 3.000000000000000000e+00 1.120000000000000107e+00 0.000000000000000000e+00 2.000000000000000000e+00
0.000000000000000000e+00 2.000000000000000000e+00 3.100000000000000089e+00 2.000000000000000000e+00 0.000000000000000000e+00 2.080000000000000071e+00
5.999999999999999778e-02 2.000000000000000000e+00 4.320000000000000284e+00 2.000000000000000000e+00 0.000000000000000000e+00 3.140000000000000124e+00
9.799999999999999822e-01 2.000000000000000000e+00 5.000000000000000000e+00 2.700000000000000178e+00 7.399999999999999911e-01 5.160000000000000142e+00
1.000000000000000000e+00 2.299999999999999822e+00 5.000000000000000000e+00 3.060000000000000053e+00 1.000000000000000000e+00 6.599999999999999645e+00
2.000000000000000000e+00 3.939999999999999947e+00 5.360000000000000320e+00 4.000000000000000000e+00 2.279999999999999805e+00 1.626000000000000156e+01
3.479999999999999982e+00 7.259999999999999787e+00 6.000000000000000000e+00 5.780000000000000249e+00 3.759999999999999787e+00 2.650000000000000000e+01
4.700000000000000178e+00 9.339999999999999858e+00 7.400000000000000355e+00 9.460000000000000853e+00 5.519999999999999574e+00 3.596000000000000085e+01
5.019999999999999574e+00 1.061999999999999922e+01 8.599999999999999645e+00 1.375999999999999979e+01 6.820000000000000284e+00 3.821999999999999886e+01
6.000000000000000000e+00 1.206000000000000050e+01 9.179999999999999716e+00 1.755999999999999872e+01 7.959999999999999964e+00 4.120000000000000284e+01
6.500000000000000000e+00 1.300000000000000000e+01 1.000000000000000000e+01 2.237999999999999901e+01 9.000000000000000000e+00 4.346000000000000085e+01
7.000000000000000000e+00 1.335999999999999943e+01 1.075999999999999979e+01 2.300000000000000000e+01 9.359999999999999432e+00 4.832000000000000028e+01
7.120000000000000107e+00 1.400000000000000000e+01 1.088000000000000078e+01 2.314000000000000057e+01 1.000000000000000000e+01 5.142000000000000171e+01
8.000000000000000000e+00 1.433999999999999986e+01 1.100000000000000000e+01 2.400000000000000000e+01 1.000000000000000000e+01 5.420000000000000284e+01
8.000000000000000000e+00 1.500000000000000000e+01 1.151999999999999957e+01 2.400000000000000000e+01 1.000000000000000000e+01 5.684000000000000341e+01
8.099999999999999645e+00 1.498000000000000043e+01 1.200000000000000000e+01 2.473999999999999844e+01 1.000000000000000000e+01 5.682000000000000028e+01
8.000000000000000000e+00 1.367999999999999972e+01 1.200000000000000000e+01 2.500000000000000000e+01 1.000000000000000000e+01 5.406000000000000227e+01
8.000000000000000000e+00 1.256000000000000050e+01 1.203999999999999915e+01 2.392000000000000171e+01 9.240000000000000213e+00 5.015999999999999659e+01
8.000000000000000000e+00 1.193999999999999950e+01 1.217999999999999972e+01 2.239999999999999858e+01 9.000000000000000000e+00 5.100000000000000000e+01
7.219999999999999751e+00 1.074000000000000021e+01 1.327999999999999936e+01 2.066000000000000014e+01 7.700000000000000178e+00 5.147999999999999687e+01
7.240000000000000213e+00 1.001999999999999957e+01 1.391999999999999993e+01 1.767999999999999972e+01 7.000000000000000000e+00 5.200000000000000000e+01
8.000000000000000000e+00 1.096000000000000085e+01 1.400000000000000000e+01 1.978000000000000114e+01 7.000000000000000000e+00 5.164000000000000057e+01
8.000000000000000000e+00 1.027999999999999936e+01 1.491999999999999993e+01 1.994000000000000128e+01 7.000000000000000000e+00 4.965999999999999659e+01
8.000000000000000000e+00 1.000000000000000000e+01 1.546000000000000085e+01 2.016000000000000014e+01 7.000000000000000000e+00 4.896000000000000085e+01
8.000000000000000000e+00 1.077999999999999936e+01 1.567999999999999972e+01 2.057999999999999829e+01 7.000000000000000000e+00 4.892000000000000171e+01
8.000000000000000000e+00 1.100000000000000000e+01 1.519999999999999929e+01 2.000000000000000000e+01 7.000000000000000000e+00 4.903999999999999915e+01
8.000000000000000000e+00 1.100000000000000000e+01 1.508000000000000007e+01 2.035999999999999943e+01 7.000000000000000000e+00 4.964000000000000057e+01
8.000000000000000000e+00 1.100000000000000000e+01 1.508000000000000007e+01 2.100000000000000000e+01 7.000000000000000000e+00 4.985999999999999943e+01
8.000000000000000000e+00 1.100000000000000000e+01 1.551999999999999957e+01 2.100000000000000000e+01 7.000000000000000000e+00 4.865999999999999659e+01
8.000000000000000000e+00 1.100000000000000000e+01 1.416000000000000014e+01 2.092000000000000171e+01 7.000000000000000000e+00 4.735999999999999943e+01
8.000000000000000000e+00 1.027999999999999936e+01 1.401999999999999957e+01 1.944000000000000128e+01 6.639999999999999680e+00 4.652000000000000313e+01
7.799999999999999822e+00 1.000000000000000000e+01 1.400000000000000000e+01 1.769999999999999929e+01 6.019999999999999574e+00 4.382000000000000028e+01
7.459999999999999964e+00 1.000000000000000000e+01 1.298000000000000043e+01 1.751999999999999957e+01 6.620000000000000107e+00 4.435999999999999943e+01
8.000000000000000000e+00 1.000000000000000000e+01 1.250000000000000000e+01 1.776000000000000156e+01 6.660000000000000142e+00 4.347999999999999687e+01
7.440000000000000391e+00 9.220000000000000639e+00 1.300000000000000000e+01 1.760000000000000142e+01 6.620000000000000107e+00 4.457999999999999829e+01
7.040000000000000036e+00 9.000000000000000000e+00 1.300000000000000000e+01 1.800000000000000000e+01 6.900000000000000355e+00 4.297999999999999687e+01
7.620000000000000107e+00 9.000000000000000000e+00 1.300000000000000000e+01 1.798000000000000043e+01 7.000000000000000000e+00 4.275999999999999801e+01
8.000000000000000000e+00 9.339999999999999858e+00 1.300000000000000000e+01 1.800000000000000000e+01 6.959999999999999964e+00 4.221999999999999886e+01
7.959999999999999964e+00 1.000000000000000000e+01 1.300000000000000000e+01 1.864000000000000057e+01 6.919999999999999929e+00 4.252000000000000313e+01
2.000000000000000000e+00 2.000000000000000000e+00 1.077999999999999936e+01 5.000000000000000000e+00 1.000000000000000000e+00 3.000000000000000000e+00
2.000000000000000000e+00 2.000000000000000000e+00 1.117999999999999972e+01 5.219999999999999751e+00 1.000000000000000000e+00 3.000000000000000000e+00
2.000000000000000000e+00 2.500000000000000000e+00 1.135999999999999943e+01 6.000000000000000000e+00 1.000000000000000000e+00 3.779999999999999805e+00
2.000000000000000000e+00 3.000000000000000000e+00 1.253999999999999915e+01 6.000000000000000000e+00 1.000000000000000000e+00 4.000000000000000000e+00
2.000000000000000000e+00 3.000000000000000000e+00 1.300000000000000000e+01 6.000000000000000000e+00 1.000000000000000000e+00 3.799999999999999822e+00
2.000000000000000000e+00 3.000000000000000000e+00 1.300000000000000000e+01 6.679999999999999716e+00 1.000000000000000000e+00 4.000000000000000000e+00
2.000000000000000000e+00 3.000000000000000000e+00 1.300000000000000000e+01 7.000000000000000000e+00 1.000000000000000000e+00 4.000000000000000000e+00
2.419999999999999929e+00 3.000000000000000000e+00 1.369999999999999929e+01 7.000000000000000000e+00 1.000000000000000000e+00 4.000000000000000000e+00
3.000000000000000000e+00 3.680000000000000160e+00 1.400000000000000000e+01 7.000000000000000000e+00 1.840000000000000080e+00 4.000000000000000000e+00
3.000000000000000000e+00 4.000000000000000000e+00 1.400000000000000000e+01 7.000000000000000000e+00 2.000000000000000000e+00 4.000000000000000000e+00
3.000000000000000000e+00 4.000000000000000000e+00 1.400000000000000000e+01 7.000000000000000000e+00 1.639999999999999902e+00 4.000000000000000000e+00
3.000000000000000000e+00 4.000000000000000000e+00 1.303999999999999915e+01 7.000000000000000000e+00 1.080000000000000071e+00 4.000000000000000000e+00
3.000000000000000000e+00 3.439999999999999947e+00 1.314000000000000057e+01 7.000000000000000000e+00 2.000000000000000000e+00 4.000000000000000000e+00
2.819999999999999840e+00 3.000000000000000000e+00 1.300000000000000000e+01 7.000000000000000000e+00 1.439999999999999947e+00 4.000000000000000000e+00
3.000000000000000000e+00 3.000000000000000000e+00 1.300000000000000000e+01 7.000000000000000000e+00 1.520000000000000018e+00 4.000000000000000000e+00
3.000000000000000000e+00 3.000000000000000000e+00 1.300000000000000000e+01 7.000000000000000000e+00 2.000000000000000000e+00 4.000000000000000000e+00
3.000000000000000000e+00 3.000000000000000000e+00 1.300000000000000000e+01 6.099999999999999645e+00 2.000000000000000000e+00 4.000000000000000000e+00
3.000000000000000000e+00 3.000000000000000000e+00 1.300000000000000000e+01 6.000000000000000000e+00 2.000000000000000000e+00 4.000000000000000000e+00
3.000000000000000000e+00 3.000000000000000000e+00 1.293999999999999950e+01 6.000000000000000000e+00 2.000000000000000000e+00 4.000000000000000000e+00
3.000000000000000000e+00 3.000000000000000000e+00 1.300000000000000000e+01 6.000000000000000000e+00 2.000000000000000000e+00 4.000000000000000000e+00
3.000000000000000000e+00 3.000000000000000000e+00 1.251999999999999957e+01 6.139999999999999680e+00 2.000000000000000000e+00 4.000000000000000000e+00
3.000000000000000000e+00 3.000000000000000000e+00 1.246000000000000085e+01 6.000000000000000000e+00 1.919999999999999929e+00 4.000000000000000000e+00
3.000000000000000000e+00 3.000000000000000000e+00 1.300000000000000000e+01 6.000000000000000000e+00 1.000000000000000000e+00 4.000000000000000000e+00
2.600000000000000089e+00 3.000000000000000000e+00 1.382000000000000028e+01 6.000000000000000000e+00 1.000000000000000000e+00 4.000000000000000000e+00
2.180000000000000160e+00 3.000000000000000000e+00 1.400000000000000000e+01 6.519999999999999574e+00 1.199999999999999956e+00 4.000000000000000000e+00
2.660000000000000142e+00 3.000000000000000000e+00 1.300000000000000000e+01 6.459999999999999964e+00 1.000000000000000000e+00 4.200000000000000178e+00
2.000000000000000000e+00 3.000000000000000000e+00 1.351999999999999957e+01 7.000000000000000000e+00 1.000000000000000000e+00 4.000000000000000000e+00
2.000000000000000000e+00 3.000000000000000000e+00 1.400000000000000000e+01 7.000000000000000000e+00 1.000000000000000000e+00 4.179999999999999716e+00
2.000000000000000000e+00 3.000000000000000000e+00 1.400000000000000000e+01 7.000000000000000000e+00 1.000000000000000000e+00 4.059999999999999609e+00
2.000000000000000000e+00 3.000000000000000000e+00 1.367999999999999972e+01 7.000000000000000000e+00 1.000000000000000000e+00 4.900000000000000355e+00
2.000000000000000000e+00 3.000000000000000000e+00 1.400000000000000000e+01 7.000000000000000000e+00 1.000000000000000000e+00 5.000000000000000000e+00
2.000000000000000000e+00 3.000000000000000000e+00 1.364000000000000057e+01 7.000000000000000000e+00 1.000000000000000000e+00 5.000000000000000000e+00
2.000000000000000000e+00 3.000000000000000000e+00 1.300000000000000000e+01 7.000000000000000000e+00 1.580000000000000071e+00 5.000000000000000000e+00
2.979999999999999982e+00 3.000000000000000000e+00 1.216000000000000014e+01 7.000000000000000000e+00 2.000000000000000000e+00 5.000000000000000000e+00
3.000000000000000000e+00 3.000000000000000000e+00 1.200000000000000000e+01 7.000000000000000000e+00 2.000000000000000000e+00 5.000000000000000000e+00
3.000000000000000000e+00 3.000000000000000000e+00 1.269999999999999929e+01 7.000000000000000000e+00 2.000000000000000000e+00 5.000000000000000000e+00
3.000000000000000000e+00 3.000000000000000000e+00 1.285999999999999943e+01 7.000000000000000000e+00 2.000000000000000000e+00 5.000000000000000000e+00
3.000000000000000000e+00 3.000000000000000000e+00 1.251999999999999957e+01 6.940000000000000391e+00 2.000000000000000000e+00 5.000000000000000000e+00
3.000000000000000000e+00 3.000000000000000000e+00 1.300000000000000000e+01 6.780000000000000249e+00 2.000000000000000000e+00 5.000000000000000000e+00
3.000000000000000000e+00 3.000000000000000000e+00 1.300000000000000000e+01 6.980000000000000426e+00 2.000000000000000000e+00 5.000000000000000000e+00
3.000000000000000000e+00 2.000000000000000000e+00 1.666000000000000014e+01 6.219999999999999751e+00 2.000000000000000000e+00 5.000000000000000000e+00
3.000000000000000000e+00 2.439999999999999947e+00 1.700000000000000000e+01 7.000000000000000000e+00 2.000000000000000000e+00 5.000000000000000000e+00
3.000000000000000000e+00 3.000000000000000000e+00 1.700000000000000000e+01 7.540000000000000036e+00 2.000000000000000000e+00 5.759999999999999787e+00
3.000000000000000000e+00 3.000000000000000000e+00 1.748000000000000043e+01 8.000000000000000000e+00 2.000000000000000000e+00 6.000000000000000000e+00
3.000000000000000000e+00 3.000000000000000000e+00 1.760000000000000142e+01 8.800000000000000711e+00 2.040000000000000036e+00 6.000000000000000000e+00
3.000000000000000000e+00 3.000000000000000000e+00 1.744000000000000128e+01 9.000000000000000000e+00 2.220000000000000195e+00 6.000000000000000000e+00
3.000000000000000000e+00 3.000000000000000000e+00 1.600000000000000000e+01 9.000000000000000000e+00 2.540000000000000036e+00 6.000000000000000000e+00
3.000000000000000000e+00 3.000000000000000000e+00 1.540000000000000036e+01 9.000000000000000000e+00 2.680000000000000160e+00 6.000000000000000000e+00
3.000000000000000000e+00 3.000000000000000000e+00 1.388000000000000078e+01 9.960000000000000853e+00 2.000000000000000000e+00 6.000000000000000000e+00
3.240000000000000213e+00 3.000000000000000000e+00 1.400000000000000000e+01 1.000000000000000000e+01 2.180000000000000160e+00 6.000000000000000000e+00
3.000000000000000000e+00 3.000000000000000000e+00 1.356000000000000050e+01 1.000000000000000000e+01 3.000000000000000000e+00 6.000000000000000000e+00
3.040000000000000036e+00 3.000000000000000000e+00 1.314000000000000057e+01 1.000000000000000000e+01 2.819999999999999840e+00 6.000000000000000000e+00
3.000000000000000000e+00 3.000000000000000000e+00 1.300000000000000000e+01 9.080000000000000071e+00 2.000000000000000000e+00 5.519999999999999574e+00
3.000000000000000000e+00 3.000000000000000000e+00 1.291999999999999993e+01 9.000000000000000000e+00 2.000000000000000000e+00 5.099999999999999645e+00
3.000000000000000000e+00 3.000000000000000000e+00 1.208000000000000007e+01 8.080000000000000071e+00 2.000000000000000000e+00 5.080000000000000071e+00
3.000000000000000000e+00 3.000000000000000000e+00 1.214000000000000057e+01 8.000000000000000000e+00 2.000000000000000000e+00 5.480000000000000426e+00
3.000000000000000000e+00 2.759999999999999787e+00 1.200000000000000000e+01 8.000000000000000000e+00 2.000000000000000000e+00 6.000000000000000000e+00
3.000000000000000000e+00 2.560000000000000053e+00 1.200000000000000000e+01 8.000000000000000000e+00 2.000000000000000000e+00 5.419999999999999929e+00
3.000000000000000000e+00 2.439999999999999947e+00 1.200000000000000000e+01 8.000000000000000000e+00 2.000000000000000000e+00 5.900000000000000355e+00
3.000000000000000000e+00 2.700000000000000178e+00 1.200000000000000000e+01 7.339999999999999858e+00 1.800000000000000044e+00 5.919999999999999929e+00
3.000000000000000000e+00 2.000000000000000000e+00 1.158000000000000007e+01 7.000000000000000000e+00 1.000000000000000000e+00 5.679999999999999716e+00
3.000000000000000000e+00 2.000000000000000000e+00 1.100000000000000000e+01 7.000000000000000000e+00 1.020000000000000018e+00 5.000000000000000000e+00
3.000000000000000000e+00 2.000000000000000000e+00 1.100000000000000000e+01 7.400000000000000355e+00 2.000000000000000000e+00 5.000000000000000000e+00
3.000000000000000000e+00 2.000000000000000000e+00 1.100000000000000000e+01 8.000000000000000000e+00 2.000000000000000000e+00 5.000000000000000000e+00
3.000000000000000000e+00 2.000000000000000000e+00 1.100000000000000000e+01 8.119999999999999218e+00 1.600000000000000089e+00 5.000000000000000000e+00
3.000000000000000000e+00 2.000000000000000000e+00 1.100000000000000000e+01 8.480000000000000426e+00 1.959999999999999964e+00 5.000000000000000000e+00
3.000000000000000000e+00 2.000000000000000000e+00 1.100000000000000000e+01 8.000000000000000000e+00 2.000000000000000000e+00 5.000000000000000000e+00
3.000000000000000000e+00 2.000000000000000000e+00 1.082000000000000028e+01 8.000000000000000000e+00 2.000000000000000000e+00 5.000000000000000000e+00
3.000000000000000000e+00 2.000000000000000000e+00 1.019999999999999929e+01 8.000000000000000000e+00 2.000000000000000000e+00 5.000000000000000000e+00
3.000000000000000000e+00 2.000000000000000000e+00 1.000000000000000000e+01 8.199999999999999289e+00 2.000000000000000000e+00 4.959999999999999964e+00
3.000000000000000000e+00 2.000000000000000000e+00 1.000000000000000000e+01 9.000000000000000000e+00 2.000000000000000000e+00 4.059999999999999609e+00
3.000000000000000000e+00 2.000000000000000000e+00 1.000000000000000000e+01 8.859999999999999432e+00 2.839999999999999858e+00 5.000000000000000000e+00
3.000000000000000000e+00 2.359999999999999876e+00 1.000000000000000000e+01 8.000000000000000000e+00 2.000000000000000000e+00 5.000000000000000000e+00
3.000000000000000000e+00 3.000000000000000000e+00 1.000000000000000000e+01 8.000000000000000000e+00 2.000000000000000000e+00 5.000000000000000000e+00
3.000000000000000000e+00 3.000000000000000000e+00 1.046000000000000085e+01 8.000000000000000000e+00 2.000000000000000000e+00 5.000000000000000000e+00
3.000000000000000000e+00 3.000000000000000000e+00 1.085999999999999943e+01 8.000000000000000000e+00 2.259999999999999787e+00 5.000000000000000000e+00
3.000000000000000000e+00 3.000000000000000000e+00 1.000000000000000000e+01 8.119999999999999218e+00 3.000000000000000000e+00 5.200000000000000178e+00
3.000000000000000000e+00 3.000000000000000000e+00 1.041999999999999993e+01 9.000000000000000000e+00 3.000000000000000000e+00 6.000000000000000000e+00
3.000000000000000000e+00 3.000000000000000000e+00 1.022000000000000064e+01 9.000000000000000000e+00 3.000000000000000000e+00 6.000000000000000000e+00
3.000000000000000000e+00 3.000000000000000000e+00 1.000000000000000000e+01 9.000000000000000000e+00 3.000000000000000000e+00 6.000000000000000000e+00
3.399999999999999911e+00 5.940000000000000391e+00 4.442000000000000171e+01 5.019999999999999574e+00 1.560000000000000053e+00 2.620000000000000107e+00
4.639999999999999680e+00 7.500000000000000000e+00 5.796000000000000085e+01 6.379999999999999893e+00 2.319999999999999840e+00 2.540000000000000036e+00
6.599999999999999645e+00 9.119999999999999218e+00 7.107999999999999829e+01 7.360000000000000320e+00 3.000000000000000000e+00 3.160000000000000142e+00
7.519999999999999574e+00 1.038000000000000078e+01 7.901999999999999602e+01 8.140000000000000568e+00 3.080000000000000071e+00 4.000000000000000000e+00
8.179999999999999716e+00 1.143999999999999950e+01 9.126000000000000512e+01 9.080000000000000071e+00 4.000000000000000000e+00 4.820000000000000284e+00
9.300000000000000711e+00 1.225999999999999979e+01 1.035000000000000000e+02 1.000000000000000000e+01 4.959999999999999964e+00 6.000000000000000000e+00
1.000000000000000000e+01 1.340000000000000036e+01 1.132000000000000028e+02 1.016000000000000014e+01 5.000000000000000000e+00 6.280000000000000249e+00
1.058000000000000007e+01 1.506000000000000050e+01 1.179800000000000040e+02 1.100000000000000000e+01 5.740000000000000213e+00 7.000000000000000000e+00
1.143999999999999950e+01 1.700000000000000000e+01 1.220600000000000023e+02 1.125999999999999979e+01 6.000000000000000000e+00 7.419999999999999929e+00
1.200000000000000000e+01 1.703999999999999915e+01 1.234800000000000040e+02 1.200000000000000000e+01 6.000000000000000000e+00 8.000000000000000000e+00
1.200000000000000000e+01 1.771999999999999886e+01 1.212000000000000028e+02 1.200000000000000000e+01 6.000000000000000000e+00 8.000000000000000000e+00
1.200000000000000000e+01 1.800000000000000000e+01 1.171400000000000006e+02 1.185999999999999943e+01 6.440000000000000391e+00 8.000000000000000000e+00
1.200000000000000000e+01 1.800000000000000000e+01 1.128799999999999955e+02 1.100000000000000000e+01 6.000000000000000000e+00 8.000000000000000000e+00
1.200000000000000000e+01 1.800000000000000000e+01 1.110400000000000063e+02 1.100000000000000000e+01 6.000000000000000000e+00 8.000000000000000000e+00
1.191999999999999993e+01 1.800000000000000000e+01 1.046599999999999966e+02 1.100000000000000000e+01 6.160000000000000142e+00 8.000000000000000000e+00
1.100000000000000000e+01 1.800000000000000000e+01 9.579999999999999716e+01 1.100000000000000000e+01 6.000000000000000000e+00 8.000000000000000000e+00
1.100000000000000000e+01 1.762000000000000099e+01 8.581999999999999318e+01 1.069999999999999929e+01 6.000000000000000000e+00 8.000000000000000000e+00
1.100000000000000000e+01 1.655999999999999872e+01 8.051999999999999602e+01 1.000000000000000000e+01 5.980000000000000426e+00 7.320000000000000284e+00
1.074000000000000021e+01 1.500000000000000000e+01 7.529999999999999716e+01 1.000000000000000000e+01 5.299999999999999822e+00 7.000000000000000000e+00
1.080000000000000071e+01 1.500000000000000000e+01 7.376000000000000512e+01 9.240000000000000213e+00 5.000000000000000000e+00 7.000000000000000000e+00
1.053999999999999915e+01 1.459999999999999964e+01 7.170000000000000284e+01 9.000000000000000000e+00 5.000000000000000000e+00 7.280000000000000249e+00
1.025999999999999979e+01 1.467999999999999972e+01 7.168000000000000682e+01 9.000000000000000000e+00 5.000000000000000000e+00 7.000000000000000000e+00
1.064000000000000057e+01 1.500000000000000000e+01 6.921999999999999886e+01 9.000000000000000000e+00 5.000000000000000000e+00 7.000000000000000000e+00
1.059999999999999964e+01 1.500000000000000000e+01 6.840000000000000568e+01 9.019999999999999574e+00 5.000000000000000000e+00 7.000000000000000000e+00
1.100000000000000000e+01 1.500000000000000000e+01 6.721999999999999886e+01 9.000000000000000000e+00 5.000000000000000000e+00 7.000000000000000000e+00
1.100000000000000000e+01 1.500000000000000000e+01 6.790000000000000568e+01 9.320000000000000284e+00 5.000000000000000000e+00 7.000000000000000000e+00
1.198000000000000043e+01 1.530000000000000071e+01 7.062000000000000455e+01 9.820000000000000284e+00 5.000000000000000000e+00 7.000000000000000000e+00
1.200000000000000000e+01 1.600000000000000000e+01 7.262000000000000455e+01 1.000000000000000000e+01 5.860000000000000320e+00 7.200000000000000178e+00
1.251999999999999957e+01 1.680000000000000071e+01 7.400000000000000000e+01 1.000000000000000000e+01 6.000000000000000000e+00 8.000000000000000000e+00
1.300000000000000000e+01 1.755999999999999872e+01 7.448000000000000398e+01 1.000000000000000000e+01 6.179999999999999716e+00 8.000000000000000000e+00
1.316000000000000014e+01 1.800000000000000000e+01 7.504000000000000625e+01 1.000000000000000000e+01 6.120000000000000107e+00 8.000000000000000000e+00
1.375999999999999979e+01 1.762000000000000099e+01 7.457999999999999829e+01 1.000000000000000000e+01 6.839999999999999858e+00 8.000000000000000000e+00
1.400000000000000000e+01 1.782000000000000028e+01 7.443999999999999773e+01 1.000000000000000000e+01 6.959999999999999964e+00 8.000000000000000000e+00
1.406000000000000050e+01 1.889999999999999858e+01 7.442000000000000171e+01 1.000000000000000000e+01 7.200000000000000178e+00 8.779999999999999361e+00
1.433999999999999986e+01 1.976000000000000156e+01 7.471999999999999886e+01 1.046000000000000085e+01 8.099999999999999645e+00 8.960000000000000853e+00
1.540000000000000036e+01 2.082000000000000028e+01 7.615999999999999659e+01 1.100000000000000000e+01 9.000000000000000000e+00 9.480000000000000426e+00
1.500000000000000000e+01 2.100000000000000000e+01 7.621999999999999886e+01 1.100000000000000000e+01 9.000000000000000000e+00 9.699999999999999289e+00
1.500000000000000000e+01 2.100000000000000000e+01 7.656000000000000227e+01 1.100000000000000000e+01 9.099999999999999645e+00 9.519999999999999574e+00
1.500000000000000000e+01 2.003999999999999915e+01 7.718000000000000682e+01 1.100000000000000000e+01 9.539999999999999147e+00 9.539999999999999147e+00
1.501999999999999957e+01 2.000000000000000000e+01 7.904000000000000625e+01 1.100000000000000000e+01 9.699999999999999289e+00 9.740000000000000213e+00
2.000000000000000000e+00 2.000000000000000000e+00 8.599999999999999645e+00 5.000000000000000000e+00 0.000000000000000000e+00 2.000000000000000000e+00
2.000000000000000000e+00 2.000000000000000000e+00 8.000000000000000000e+00 5.000000000000000000e+00 0.000000000000000000e+00 2.000000000000000000e+00
2.000000000000000000e+00 2.000000000000000000e+00 8.000000000000000000e+00 5.000000000000000000e+00 0.000000000000000000e+00 2.000000000000000000e+00
1.760000000000000009e+00 2.000000000000000000e+00 7.559999999999999609e+00 5.000000000000000000e+00 0.000000000000000000e+00 2.000000000000000000e+00
1.000000000000000000e+00 2.000000000000000000e+00 7.000000000000000000e+00 5.000000000000000000e+00 0.000000000000000000e+00 2.000000000000000000e+00
1.000000000000000000e+00 2.000000000000000000e+00 7.000000000000000000e+00 5.000000000000000000e+00 0.000000000000000000e+00 2.000000000000000000e+00
1.000000000000000000e+00 2.000000000000000000e+00 7.000000000000000000e+00 5.000000000000000000e+00 0.000000000000000000e+00 2.000000000000000000e+00
1.000000000000000000e+00 2.000000000000000000e+00 7.000000000000000000e+00 5.000000000000000000e+00 0.000000000000000000e+00 2.000000000000000000e+00
1.000000000000000000e+00 2.000000000000000000e+00 7.000000000000000000e+00 5.000000000000000000e+00 0.000000000000000000e+00 1.379999999999999893e+00
1.000000000000000000e+00 2.000000000000000000e+00 7.000000000000000000e+00 5.000000000000000000e+00 0.000000000000000000e+00 2.000000000000000000e+00
1.000000000000000000e+00 2.000000000000000000e+00 7.000000000000000000e+00 5.000000000000000000e+00 0.000000000000000000e+00 2.000000000000000000e+00
1.000000000000000000e+00 2.000000000000000000e+00 7.000000000000000000e+00 5.000000000000000000e+00 0.000000000000000000e+00 2.000000000000000000e+00
1.060000000000000053e+00 2.000000000000000000e+00 7.000000000000000000e+00 5.000000000000000000e+00 1.799999999999999933e-01 2.000000000000000000e+00
2.000000000000000000e+00 2.000000000000000000e+00 7.099999999999999645e+00 5.000000000000000000e+00 1.000000000000000000e+00 2.000000000000000000e+00
2.000000000000000000e+00 2.000000000000000000e+00 7.480000000000000426e+00 5.299999999999999822e+00 1.000000000000000000e+00 2.000000000000000000e+00
2.000000000000000000e+00 2.000000000000000000e+00 7.440000000000000391e+00 6.040000000000000036e+00 2.379999999999999893e+00 2.000000000000000000e+00
2.000000000000000000e+00 2.000000000000000000e+00 7.400000000000000355e+00 7.299999999999999822e+00 3.399999999999999911e+00 2.000000000000000000e+00
2.879999999999999893e+00 2.000000000000000000e+00 8.339999999999999858e+00 8.439999999999999503e+00 4.000000000000000000e+00 2.240000000000000213e+00
3.000000000000000000e+00 2.000000000000000000e+00 8.779999999999999361e+00 9.000000000000000000e+00 4.000000000000000000e+00 3.379999999999999893e+00
3.000000000000000000e+00 2.279999999999999805e+00 9.000000000000000000e+00 9.000000000000000000e+00 4.419999999999999929e+00 3.560000000000000053e+00
3.000000000000000000e+00 3.000000000000000000e+00 9.460000000000000853e+00 9.779999999999999361e+00 5.000000000000000000e+00 4.000000000000000000e+00
3.000000000000000000e+00 3.000000000000000000e+00 1.000000000000000000e+01 1.000000000000000000e+01 5.000000000000000000e+00 4.000000000000000000e+00
3.000000000000000000e+00 3.000000000000000000e+00 1.019999999999999929e+01 1.000000000000000000e+01 5.000000000000000000e+00 4.000000000000000000e+00
3.000000000000000000e+00 3.000000000000000000e+00 1.100000000000000000e+01 1.000000000000000000e+01 5.000000000000000000e+00 4.000000000000000000e+00
3.000000000000000000e+00 3.000000000000000000e+00 1.100000000000000000e+01 1.000000000000000000e+01 5.000000000000000000e+00 4.000000000000000000e+00
3.000000000000000000e+00 3.000000000000000000e+00 1.143999999999999950e+01 1.000000000000000000e+01 4.980000000000000426e+00 4.000000000000000000e+00
3.000000000000000000e+00 3.000000000000000000e+00 1.200000000000000000e+01 9.740000000000000213e+00 4.000000000000000000e+00 4.000000000000000000e+00
3.000000000000000000e+00 3.000000000000000000e+00 1.166000000000000014e+01 9.000000000000000000e+00 3.859999999999999876e+00 4.000000000000000000e+00
3.000000000000000000e+00 3.000000000000000000e+00 1.198000000000000043e+01 9.000000000000000000e+00 3.060000000000000053e+00 3.200000000000000178e+00
3.000000000000000000e+00 2.660000000000000142e+00 1.111999999999999922e+01 8.460000000000000853e+00 3.000000000000000000e+00 2.979999999999999982e+00
2.500000000000000000e+00 2.000000000000000000e+00 1.100000000000000000e+01 8.000000000000000000e+00 3.000000000000000000e+00 2.000000000000000000e+00
2.220000000000000195e+00 2.000000000000000000e+00 1.080000000000000071e+01 8.000000000000000000e+00 3.000000000000000000e+00 2.000000000000000000e+00
2.240000000000000213e+00 2.000000000000000000e+00 1.000000000000000000e+01 8.000000000000000000e+00 2.560000000000000053e+00 2.000000000000000000e+00
2.000000000000000000e+00 2.000000000000000000e+00 1.000000000000000000e+01 8.000000000000000000e+00 3.000000000000000000e+00 2.000000000000000000e+00
2.000000000000000000e+00 2.000000000000000000e+00 9.800000000000000711e+00 7.620000000000000107e+00 2.259999999999999787e+00 2.000000000000000000e+00
2.000000000000000000e+00 2.000000000000000000e+00 8.580000000000000071e+00 7.000000000000000000e+00 2.000000000000000000e+00 2.000000000000000000e+00
2.000000000000000000e+00 2.000000000000000000e+00 8.000000000000000000e+00 6.719999999999999751e+00 2.000000000000000000e+00 2.000000000000000000e+00
2.000000000000000000e+00 2.000000000000000000e+00 7.200000000000000178e+00 6.000000000000000000e+00 2.000000000000000000e+00 1.820000000000000062e+00
2.000000000000000000e+00 2.000000000000000000e+00 6.400000000000000355e+00 5.559999999999999609e+00 2.000000000000000000e+00 1.000000000000000000e+00
1.879999999999999893e+00 1.320000000000000062e+00 6.000000000000000000e+00 5.000000000000000000e+00 2.000000000000000000e+00 1.000000000000000000e+00
