2.300000000000000000e+01 2.600000000000000000e+01 1.962000000000000099e+01 1.917999999999999972e+01 1.346000000000000085e+01 2.450000000000000000e+01
2.300000000000000000e+01 2.637999999999999901e+01 1.976000000000000156e+01 1.900000000000000000e+01 1.300000000000000000e+01 2.498000000000000043e+01
2.262000000000000099e+01 2.567999999999999972e+01 2.000000000000000000e+01 1.900000000000000000e+01 1.335999999999999943e+01 2.507999999999999829e+01
2.135999999999999943e+01 2.494000000000000128e+01 1.933999999999999986e+01 1.914000000000000057e+01 1.400000000000000000e+01 2.500000000000000000e+01
2.162000000000000099e+01 2.467999999999999972e+01 1.869999999999999929e+01 1.953999999999999915e+01 1.380000000000000071e+01 2.585999999999999943e+01
2.200000000000000000e+01 2.478000000000000114e+01 1.823999999999999844e+01 1.967999999999999972e+01 1.348000000000000043e+01 2.562000000000000099e+01
2.267999999999999972e+01 2.592000000000000171e+01 1.800000000000000000e+01 2.000000000000000000e+01 1.400000000000000000e+01 2.626000000000000156e+01
2.300000000000000000e+01 2.733999999999999986e+01 1.803999999999999915e+01 2.039999999999999858e+01 1.400000000000000000e+01 2.700000000000000000e+01
2.316000000000000014e+01 2.800000000000000000e+01 1.787999999999999901e+01 2.017999999999999972e+01 1.400000000000000000e+01 2.635999999999999943e+01
2.316000000000000014e+01 2.900000000000000000e+01 1.855999999999999872e+01 2.014000000000000057e+01 1.400000000000000000e+01 2.317999999999999972e+01
2.489999999999999858e+01 3.016000000000000014e+01 1.828000000000000114e+01 2.073999999999999844e+01 1.400000000000000000e+01 2.200000000000000000e+01
2.594000000000000128e+01 2.917999999999999972e+01 1.896000000000000085e+01 2.100000000000000000e+01 1.422000000000000064e+01 2.203999999999999915e+01
2.630000000000000071e+01 2.948000000000000043e+01 1.900000000000000000e+01 2.100000000000000000e+01 1.380000000000000071e+01 2.200000000000000000e+01
2.826000000000000156e+01 3.119999999999999929e+01 1.932000000000000028e+01 2.142000000000000171e+01 1.356000000000000050e+01 2.226000000000000156e+01
2.921999999999999886e+01 3.256000000000000227e+01 2.000000000000000000e+01 2.135999999999999943e+01 1.400000000000000000e+01 2.244000000000000128e+01
2.933999999999999986e+01 3.200000000000000000e+01 2.117999999999999972e+01 2.107999999999999829e+01 1.356000000000000050e+01 2.264000000000000057e+01
2.919999999999999929e+01 3.171999999999999886e+01 2.183999999999999986e+01 2.053999999999999915e+01 1.300000000000000000e+01 2.237999999999999901e+01
2.905999999999999872e+01 3.123999999999999844e+01 2.162000000000000099e+01 2.001999999999999957e+01 1.300000000000000000e+01 2.200000000000000000e+01
2.983999999999999986e+01 3.342000000000000171e+01 2.176000000000000156e+01 1.967999999999999972e+01 1.290000000000000036e+01 2.139999999999999858e+01
2.873999999999999844e+01 3.217999999999999972e+01 2.100000000000000000e+01 1.900000000000000000e+01 1.272000000000000064e+01 2.100000000000000000e+01
2.692000000000000171e+01 3.142000000000000171e+01 2.100000000000000000e+01 1.900000000000000000e+01 1.383999999999999986e+01 2.100000000000000000e+01
2.705999999999999872e+01 3.155999999999999872e+01 2.067999999999999972e+01 1.851999999999999957e+01 1.330000000000000071e+01 2.123999999999999844e+01
2.628000000000000114e+01 3.005999999999999872e+01 2.000000000000000000e+01 1.823999999999999844e+01 1.285999999999999943e+01 2.100000000000000000e+01
2.510000000000000142e+01 2.907999999999999829e+01 1.971999999999999886e+01 1.812000000000000099e+01 1.300000000000000000e+01 2.157999999999999829e+01
2.421999999999999886e+01 2.787999999999999901e+01 1.900000000000000000e+01 1.817999999999999972e+01 1.367999999999999972e+01 2.167999999999999972e+01
2.400000000000000000e+01 2.700000000000000000e+01 1.805999999999999872e+01 1.844000000000000128e+01 1.400000000000000000e+01 2.100000000000000000e+01
2.314000000000000057e+01 2.571999999999999886e+01 1.705999999999999872e+01 1.900000000000000000e+01 1.400000000000000000e+01 2.066000000000000014e+01
2.276000000000000156e+01 2.439999999999999858e+01 1.700000000000000000e+01 1.826000000000000156e+01 1.400000000000000000e+01 2.046000000000000085e+01
2.123999999999999844e+01 1.900000000000000000e+01 1.700000000000000000e+01 1.887999999999999901e+01 1.427999999999999936e+01 2.000000000000000000e+01
2.100000000000000000e+01 1.900000000000000000e+01 1.694000000000000128e+01 1.862000000000000099e+01 1.382000000000000028e+01 2.000000000000000000e+01
2.046000000000000085e+01 1.810000000000000142e+01 1.600000000000000000e+01 1.805999999999999872e+01 1.300000000000000000e+01 1.987999999999999901e+01
1.900000000000000000e+01 1.655999999999999872e+01 1.600000000000000000e+01 1.800000000000000000e+01 1.300000000000000000e+01 1.903999999999999915e+01
1.919999999999999929e+01 1.600000000000000000e+01 1.600000000000000000e+01 1.800000000000000000e+01 1.300000000000000000e+01 1.866000000000000014e+01
1.892000000000000171e+01 1.551999999999999957e+01 1.635999999999999943e+01 1.783999999999999986e+01 1.253999999999999915e+01 1.800000000000000000e+01
1.810000000000000142e+01 1.500000000000000000e+01 1.692000000000000171e+01 1.719999999999999929e+01 1.193999999999999950e+01 1.705999999999999872e+01
2.017999999999999972e+01 1.598000000000000043e+01 1.680000000000000071e+01 1.700000000000000000e+01 1.148000000000000043e+01 1.733999999999999986e+01
2.164000000000000057e+01 1.669999999999999929e+01 1.700000000000000000e+01 1.764000000000000057e+01 1.167999999999999972e+01 1.866000000000000014e+01
2.307999999999999829e+01 1.942000000000000171e+01 1.750000000000000000e+01 1.800000000000000000e+01 1.200000000000000000e+01 1.917999999999999972e+01
2.500000000000000000e+01 2.100000000000000000e+01 1.601999999999999957e+01 1.719999999999999929e+01 1.200000000000000000e+01 1.921999999999999886e+01
2.500000000000000000e+01 2.100000000000000000e+01 1.682000000000000028e+01 1.712000000000000099e+01 1.200000000000000000e+01 1.900000000000000000e+01
1.488000000000000078e+01 1.361999999999999922e+01 1.019999999999999929e+01 1.341999999999999993e+01 7.080000000000000071e+00 1.683999999999999986e+01
1.664000000000000057e+01 1.408000000000000007e+01 1.100000000000000000e+01 1.400000000000000000e+01 8.000000000000000000e+00 1.794000000000000128e+01
1.700000000000000000e+01 1.582000000000000028e+01 1.124000000000000021e+01 1.482000000000000028e+01 8.000000000000000000e+00 1.821999999999999886e+01
1.867999999999999972e+01 1.821999999999999886e+01 1.277999999999999936e+01 1.694000000000000128e+01 8.660000000000000142e+00 1.903999999999999915e+01
1.933999999999999986e+01 1.900000000000000000e+01 1.359999999999999964e+01 1.783999999999999986e+01 9.000000000000000000e+00 1.950000000000000000e+01
2.035999999999999943e+01 1.900000000000000000e+01 1.400000000000000000e+01 1.753999999999999915e+01 9.000000000000000000e+00 2.051999999999999957e+01
2.100000000000000000e+01 1.900000000000000000e+01 1.417999999999999972e+01 1.853999999999999915e+01 9.000000000000000000e+00 2.100000000000000000e+01
2.094000000000000128e+01 1.910000000000000142e+01 1.400000000000000000e+01 1.837999999999999901e+01 9.000000000000000000e+00 2.135999999999999943e+01
2.082000000000000028e+01 1.964000000000000057e+01 1.500000000000000000e+01 1.900000000000000000e+01 9.380000000000000782e+00 2.200000000000000000e+01
2.100000000000000000e+01 2.035999999999999943e+01 1.500000000000000000e+01 1.982000000000000028e+01 9.679999999999999716e+00 2.271999999999999886e+01
2.100000000000000000e+01 2.160000000000000142e+01 1.500000000000000000e+01 2.073999999999999844e+01 1.219999999999999929e+01 2.362000000000000099e+01
2.100000000000000000e+01 2.267999999999999972e+01 1.687999999999999901e+01 2.507999999999999829e+01 1.905999999999999872e+01 2.348000000000000043e+01
2.216000000000000014e+01 2.337999999999999901e+01 1.962000000000000099e+01 3.257999999999999829e+01 2.498000000000000043e+01 2.383999999999999986e+01
2.244000000000000128e+01 2.301999999999999957e+01 1.921999999999999886e+01 3.306000000000000227e+01 2.562000000000000099e+01 2.400000000000000000e+01
2.278000000000000114e+01 2.332000000000000028e+01 1.900000000000000000e+01 3.300000000000000000e+01 2.669999999999999929e+01 2.450000000000000000e+01
2.250000000000000000e+01 2.414000000000000057e+01 1.971999999999999886e+01 3.396000000000000085e+01 2.769999999999999929e+01 2.400000000000000000e+01
2.321999999999999886e+01 2.500000000000000000e+01 2.000000000000000000e+01 3.500000000000000000e+01 2.853999999999999915e+01 2.426000000000000156e+01
2.407999999999999829e+01 2.571999999999999886e+01 2.016000000000000014e+01 3.482000000000000028e+01 2.989999999999999858e+01 2.500000000000000000e+01
2.471999999999999886e+01 2.507999999999999829e+01 2.003999999999999915e+01 3.496000000000000085e+01 3.100000000000000000e+01 2.587999999999999901e+01
2.585999999999999943e+01 2.567999999999999972e+01 2.037999999999999901e+01 3.664000000000000057e+01 3.133999999999999986e+01 2.644000000000000128e+01
2.601999999999999957e+01 2.517999999999999972e+01 2.098000000000000043e+01 3.634000000000000341e+01 3.076000000000000156e+01 2.576000000000000156e+01
2.639999999999999858e+01 2.478000000000000114e+01 1.962000000000000099e+01 3.365999999999999659e+01 2.726000000000000156e+01 2.600000000000000000e+01
2.648000000000000043e+01 2.410000000000000142e+01 1.800000000000000000e+01 2.648000000000000043e+01 2.300000000000000000e+01 2.578000000000000114e+01
2.500000000000000000e+01 2.400000000000000000e+01 1.800000000000000000e+01 2.550000000000000000e+01 2.266000000000000014e+01 2.500000000000000000e+01
2.582000000000000028e+01 2.417999999999999972e+01 1.800000000000000000e+01 2.589999999999999858e+01 2.217999999999999972e+01 2.476000000000000156e+01
2.737999999999999901e+01 2.594000000000000128e+01 1.762000000000000099e+01 2.567999999999999972e+01 2.146000000000000085e+01 2.500000000000000000e+01
2.766000000000000014e+01 2.942000000000000171e+01 1.700000000000000000e+01 2.432000000000000028e+01 2.114000000000000057e+01 2.489999999999999858e+01
2.921999999999999886e+01 3.071999999999999886e+01 1.744000000000000128e+01 2.598000000000000043e+01 2.103999999999999915e+01 2.457999999999999829e+01
3.092000000000000171e+01 3.200000000000000000e+01 1.794000000000000128e+01 2.523999999999999844e+01 1.983999999999999986e+01 2.412000000000000099e+01
3.238000000000000256e+01 3.228000000000000114e+01 1.798000000000000043e+01 2.321999999999999886e+01 1.964000000000000057e+01 2.394000000000000128e+01
3.300000000000000000e+01 3.334000000000000341e+01 1.737999999999999901e+01 2.330000000000000071e+01 2.000000000000000000e+01 2.453999999999999915e+01
3.384000000000000341e+01 3.575999999999999801e+01 1.755999999999999872e+01 2.400000000000000000e+01 2.000000000000000000e+01 2.471999999999999886e+01
3.815999999999999659e+01 3.820000000000000284e+01 1.800000000000000000e+01 2.489999999999999858e+01 2.010000000000000142e+01 2.592000000000000171e+01
4.128000000000000114e+01 4.046000000000000085e+01 1.800000000000000000e+01 2.550000000000000000e+01 2.021999999999999886e+01 2.621999999999999886e+01
4.284000000000000341e+01 4.121999999999999886e+01 1.800000000000000000e+01 2.539999999999999858e+01 1.973999999999999844e+01 2.700000000000000000e+01
4.200000000000000000e+01 4.020000000000000284e+01 1.739999999999999858e+01 2.583999999999999986e+01 1.998000000000000043e+01 2.700000000000000000e+01
4.171999999999999886e+01 3.797999999999999687e+01 1.853999999999999915e+01 2.694000000000000128e+01 1.992000000000000171e+01 2.700000000000000000e+01
4.070000000000000284e+01 3.750000000000000000e+01 1.900000000000000000e+01 2.648000000000000043e+01 2.000000000000000000e+01 2.723999999999999844e+01
4.078000000000000114e+01 3.700000000000000000e+01 1.900000000000000000e+01 2.700000000000000000e+01 2.044000000000000128e+01 2.800000000000000000e+01
4.000000000000000000e+01 3.764000000000000057e+01 1.900000000000000000e+01 2.732000000000000028e+01 2.000000000000000000e+01 2.760000000000000142e+01
2.000000000000000000e+00 2.000000000000000000e+00 1.200000000000000000e+01 4.400000000000000355e+00 0.000000000000000000e+00 3.000000000000000000e+00
2.000000000000000000e+00 2.000000000000000000e+00 1.143999999999999950e+01 5.000000000000000000e+00 0.000000000000000000e+00 3.000000000000000000e+00
2.000000000000000000e+00 2.000000000000000000e+00 1.077999999999999936e+01 5.000000000000000000e+00 0.000000000000000000e+00 3.000000000000000000e+00
2.000000000000000000e+00 2.000000000000000000e+00 9.859999999999999432e+00 5.000000000000000000e+00 0.000000000000000000e+00 3.000000000000000000e+00
2.000000000000000000e+00 2.000000000000000000e+00 9.400000000000000355e+00 4.959999999999999964e+00 0.000000000000000000e+00 2.359999999999999876e+00
2.000000000000000000e+00 2.000000000000000000e+00 9.000000000000000000e+00 4.540000000000000036e+00 0.000000000000000000e+00 2.000000000000000000e+00
2.000000000000000000e+00 2.000000000000000000e+00 9.000000000000000000e+00 4.379999999999999893e+00 0.000000000000000000e+00 2.500000000000000000e+00
2.000000000000000000e+00 2.000000000000000000e+00 9.000000000000000000e+00 4.000000000000000000e+00 0.000000000000000000e+00 3.000000000000000000e+00
2.000000000000000000e+00 2.000000000000000000e+00 9.000000000000000000e+00 4.000000000000000000e+00 0.000000000000000000e+00 2.120000000000000107e+00
2.000000000000000000e+00 2.000000000000000000e+00 8.919999999999999929e+00 4.000000000000000000e+00 0.000000000000000000e+00 2.000000000000000000e+00
2.000000000000000000e+00 2.000000000000000000e+00 9.000000000000000000e+00 4.000000000000000000e+00 0.000000000000000000e+00 2.000000000000000000e+00
2.000000000000000000e+00 2.000000000000000000e+00 9.000000000000000000e+00 4.000000000000000000e+00 0.000000000000000000e+00 2.000000000000000000e+00
2.000000000000000000e+00 2.000000000000000000e+00 9.000000000000000000e+00 4.000000000000000000e+00 0.000000000000000000e+00 1.560000000000000053e+00
2.000000000000000000e+00 2.000000000000000000e+00 9.000000000000000000e+00 4.099999999999999645e+00 0.000000000000000000e+00 1.000000000000000000e+00
2.000000000000000000e+00 2.000000000000000000e+00 9.000000000000000000e+00 4.139999999999999680e+00 0.000000000000000000e+00 1.000000000000000000e+00
2.000000000000000000e+00 2.000000000000000000e+00 9.439999999999999503e+00 4.679999999999999716e+00 0.000000000000000000e+00 1.000000000000000000e+00
2.000000000000000000e+00 2.000000000000000000e+00 9.000000000000000000e+00 5.000000000000000000e+00 0.000000000000000000e+00 1.000000000000000000e+00
2.000000000000000000e+00 2.000000000000000000e+00 9.000000000000000000e+00 5.000000000000000000e+00 0.000000000000000000e+00 1.000000000000000000e+00
2.000000000000000000e+00 2.000000000000000000e+00 9.000000000000000000e+00 5.000000000000000000e+00 0.000000000000000000e+00 1.000000000000000000e+00
2.000000000000000000e+00 2.000000000000000000e+00 9.000000000000000000e+00 5.000000000000000000e+00 0.000000000000000000e+00 1.000000000000000000e+00
2.000000000000000000e+00 2.000000000000000000e+00 9.000000000000000000e+00 5.000000000000000000e+00 0.000000000000000000e+00 1.000000000000000000e+00
2.000000000000000000e+00 2.000000000000000000e+00 9.000000000000000000e+00 5.000000000000000000e+00 0.000000000000000000e+00 1.000000000000000000e+00
2.000000000000000000e+00 2.000000000000000000e+00 8.359999999999999432e+00 5.000000000000000000e+00 0.000000000000000000e+00 1.000000000000000000e+00
2.000000000000000000e+00 2.000000000000000000e+00 9.000000000000000000e+00 4.219999999999999751e+00 0.000000000000000000e+00 1.000000000000000000e+00
2.000000000000000000e+00 2.000000000000000000e+00 9.000000000000000000e+00 4.000000000000000000e+00 0.000000000000000000e+00 1.000000000000000000e+00
2.000000000000000000e+00 2.000000000000000000e+00 8.599999999999999645e+00 4.000000000000000000e+00 0.000000000000000000e+00 1.000000000000000000e+00
2.000000000000000000e+00 2.000000000000000000e+00 8.000000000000000000e+00 4.000000000000000000e+00 0.000000000000000000e+00 1.000000000000000000e+00
2.000000000000000000e+00 2.000000000000000000e+00 9.000000000000000000e+00 4.000000000000000000e+00 0.000000000000000000e+00 1.000000000000000000e+00
2.000000000000000000e+00 2.000000000000000000e+00 9.000000000000000000e+00 4.000000000000000000e+00 0.000000000000000000e+00 1.000000000000000000e+00
2.000000000000000000e+00 2.000000000000000000e+00 8.980000000000000426e+00 4.000000000000000000e+00 0.000000000000000000e+00 1.000000000000000000e+00
2.000000000000000000e+00 2.000000000000000000e+00 8.960000000000000853e+00 4.000000000000000000e+00 0.000000000000000000e+00 1.719999999999999973e+00
2.000000000000000000e+00 2.000000000000000000e+00 9.000000000000000000e+00 4.000000000000000000e+00 0.000000000000000000e+00 2.000000000000000000e+00
2.000000000000000000e+00 2.000000000000000000e+00 9.000000000000000000e+00 4.000000000000000000e+00 0.000000000000000000e+00 2.000000000000000000e+00
2.000000000000000000e+00 2.000000000000000000e+00 8.099999999999999645e+00 4.000000000000000000e+00 0.000000000000000000e+00 2.000000000000000000e+00
2.000000000000000000e+00 2.000000000000000000e+00 8.259999999999999787e+00 4.000000000000000000e+00 0.000000000000000000e+00 2.000000000000000000e+00
2.000000000000000000e+00 2.000000000000000000e+00 8.900000000000000355e+00 4.000000000000000000e+00 0.000000000000000000e+00 2.000000000000000000e+00
2.000000000000000000e+00 2.000000000000000000e+00 9.000000000000000000e+00 4.000000000000000000e+00 0.000000000000000000e+00 2.000000000000000000e+00
2.000000000000000000e+00 2.000000000000000000e+00 9.000000000000000000e+00 4.000000000000000000e+00 0.000000000000000000e+00 2.000000000000000000e+00
2.000000000000000000e+00 2.000000000000000000e+00 8.220000000000000639e+00 4.000000000000000000e+00 0.000000000000000000e+00 2.000000000000000000e+00
2.000000000000000000e+00 2.000000000000000000e+00 8.400000000000000355e+00 4.000000000000000000e+00 0.000000000000000000e+00 2.000000000000000000e+00
2.000000000000000000e+00 2.000000000000000000e+00 1.016000000000000014e+01 5.000000000000000000e+00 0.000000000000000000e+00 2.000000000000000000e+00
2.000000000000000000e+00 2.000000000000000000e+00 1.100000000000000000e+01 5.000000000000000000e+00 0.000000000000000000e+00 2.000000000000000000e+00
2.000000000000000000e+00 2.000000000000000000e+00 1.100000000000000000e+01 5.000000000000000000e+00 0.000000000000000000e+00 1.699999999999999956e+00
2.000000000000000000e+00 2.000000000000000000e+00 1.100000000000000000e+01 5.000000000000000000e+00 0.000000000000000000e+00 1.000000000000000000e+00
2.000000000000000000e+00 2.000000000000000000e+00 1.156000000000000050e+01 5.000000000000000000e+00 0.000000000000000000e+00 1.320000000000000062e+00
2.000000000000000000e+00 2.000000000000000000e+00 1.200000000000000000e+01 5.000000000000000000e+00 0.000000000000000000e+00 2.000000000000000000e+00
2.000000000000000000e+00 2.000000000000000000e+00 1.200000000000000000e+01 5.000000000000000000e+00 0.000000000000000000e+00 2.000000000000000000e+00
2.000000000000000000e+00 2.000000000000000000e+00 1.200000000000000000e+01 5.000000000000000000e+00 0.000000000000000000e+00 2.000000000000000000e+00
2.000000000000000000e+00 2.000000000000000000e+00 1.200000000000000000e+01 5.000000000000000000e+00 0.000000000000000000e+00 2.000000000000000000e+00
2.000000000000000000e+00 2.000000000000000000e+00 1.130000000000000071e+01 5.000000000000000000e+00 0.000000000000000000e+00 2.000000000000000000e+00
2.000000000000000000e+00 2.000000000000000000e+00 1.190000000000000036e+01 5.000000000000000000e+00 0.000000000000000000e+00 2.000000000000000000e+00
2.000000000000000000e+00 2.000000000000000000e+00 1.200000000000000000e+01 5.000000000000000000e+00 0.000000000000000000e+00 2.000000000000000000e+00
2.000000000000000000e+00 2.000000000000000000e+00 1.200000000000000000e+01 5.000000000000000000e+00 0.000000000000000000e+00 2.000000000000000000e+00
1.020000000000000018e+00 2.000000000000000000e+00 1.200000000000000000e+01 5.000000000000000000e+00 0.000000000000000000e+00 2.000000000000000000e+00
1.080000000000000071e+00 2.000000000000000000e+00 1.169999999999999929e+01 5.000000000000000000e+00 0.000000000000000000e+00 2.000000000000000000e+00
1.000000000000000000e+00 2.000000000000000000e+00 1.124000000000000021e+01 5.000000000000000000e+00 0.000000000000000000e+00 2.000000000000000000e+00
1.000000000000000000e+00 2.000000000000000000e+00 1.100000000000000000e+01 5.000000000000000000e+00 0.000000000000000000e+00 2.000000000000000000e+00
1.899999999999999911e+00 2.000000000000000000e+00 1.100000000000000000e+01 5.000000000000000000e+00 0.000000000000000000e+00 2.000000000000000000e+00
2.000000000000000000e+00 2.000000000000000000e+00 1.100000000000000000e+01 5.000000000000000000e+00 0.000000000000000000e+00 2.000000000000000000e+00
2.000000000000000000e+00 2.000000000000000000e+00 1.100000000000000000e+01 5.000000000000000000e+00 0.000000000000000000e+00 2.000000000000000000e+00
2.000000000000000000e+00 2.000000000000000000e+00 1.100000000000000000e+01 5.240000000000000213e+00 0.000000000000000000e+00 2.000000000000000000e+00
2.000000000000000000e+00 2.000000000000000000e+00 1.100000000000000000e+01 6.000000000000000000e+00 0.000000000000000000e+00 2.000000000000000000e+00
2.000000000000000000e+00 2.000000000000000000e+00 1.100000000000000000e+01 6.000000000000000000e+00 0.000000000000000000e+00 2.000000000000000000e+00
2.000000000000000000e+00 2.000000000000000000e+00 1.100000000000000000e+01 6.000000000000000000e+00 0.000000000000000000e+00 2.000000000000000000e+00
2.000000000000000000e+00 2.000000000000000000e+00 1.082000000000000028e+01 6.000000000000000000e+00 0.000000000000000000e+00 2.000000000000000000e+00
2.000000000000000000e+00 2.000000000000000000e+00 1.100000000000000000e+01 6.000000000000000000e+00 0.000000000000000000e+00 2.000000000000000000e+00
2.000000000000000000e+00 2.000000000000000000e+00 1.100000000000000000e+01 6.000000000000000000e+00 0.000000000000000000e+00 2.000000000000000000e+00
2.000000000000000000e+00 2.000000000000000000e+00 1.100000000000000000e+01 6.000000000000000000e+00 0.000000000000000000e+00 2.000000000000000000e+00
2.000000000000000000e+00 2.000000000000000000e+00 1.100000000000000000e+01 6.000000000000000000e+00 0.000000000000000000e+00 2.819999999999999840e+00
2.000000000000000000e+00 2.000000000000000000e+00 1.100000000000000000e+01 6.000000000000000000e+00 0.000000000000000000e+00 3.000000000000000000e+00
2.000000000000000000e+00 2.000000000000000000e+00 1.100000000000000000e+01 6.000000000000000000e+00 0.000000000000000000e+00 3.000000000000000000e+00
2.180000000000000160e+00 2.000000000000000000e+00 1.188000000000000078e+01 6.000000000000000000e+00 0.000000000000000000e+00 3.200000000000000178e+00
2.000000000000000000e+00 2.000000000000000000e+00 1.200000000000000000e+01 6.000000000000000000e+00 0.000000000000000000e+00 4.000000000000000000e+00
2.000000000000000000e+00 2.000000000000000000e+00 1.200000000000000000e+01 6.000000000000000000e+00 0.000000000000000000e+00 4.000000000000000000e+00
2.000000000000000000e+00 2.000000000000000000e+00 1.200000000000000000e+01 6.000000000000000000e+00 0.000000000000000000e+00 4.000000000000000000e+00
2.000000000000000000e+00 2.000000000000000000e+00 1.200000000000000000e+01 6.000000000000000000e+00 0.000000000000000000e+00 4.000000000000000000e+00
2.000000000000000000e+00 2.000000000000000000e+00 1.200000000000000000e+01 6.000000000000000000e+00 4.400000000000000022e-01 4.000000000000000000e+00
2.000000000000000000e+00 2.000000000000000000e+00 1.285999999999999943e+01 6.059999999999999609e+00 1.000000000000000000e+00 4.000000000000000000e+00
2.040000000000000036e+00 2.000000000000000000e+00 1.300000000000000000e+01 6.000000000000000000e+00 1.000000000000000000e+00 4.000000000000000000e+00
2.479999999999999982e+00 2.000000000000000000e+00 1.359999999999999964e+01 6.000000000000000000e+00 1.000000000000000000e+00 4.000000000000000000e+00
3.461999999999999744e+01 3.406000000000000227e+01 1.200000000000000000e+01 1.700000000000000000e+01 1.224000000000000021e+01 1.878000000000000114e+01
3.356000000000000227e+01 3.500000000000000000e+01 1.200000000000000000e+01 1.700000000000000000e+01 1.300000000000000000e+01 1.789999999999999858e+01
3.178000000000000114e+01 3.492000000000000171e+01 1.200000000000000000e+01 1.662000000000000099e+01 1.240000000000000036e+01 1.700000000000000000e+01
3.144000000000000128e+01 3.500000000000000000e+01 1.193999999999999950e+01 1.700000000000000000e+01 1.188000000000000078e+01 1.692000000000000171e+01
3.211999999999999744e+01 3.500000000000000000e+01 1.130000000000000071e+01 1.683999999999999986e+01 1.141999999999999993e+01 1.664000000000000057e+01
3.284000000000000341e+01 3.474000000000000199e+01 1.156000000000000050e+01 1.600000000000000000e+01 1.161999999999999922e+01 1.700000000000000000e+01
3.285999999999999943e+01 3.550000000000000000e+01 1.200000000000000000e+01 1.628000000000000114e+01 1.214000000000000057e+01 1.753999999999999915e+01
3.243999999999999773e+01 3.257999999999999829e+01 1.200000000000000000e+01 1.760000000000000142e+01 1.300000000000000000e+01 1.700000000000000000e+01
3.148000000000000043e+01 3.311999999999999744e+01 1.200000000000000000e+01 1.717999999999999972e+01 1.300000000000000000e+01 1.746000000000000085e+01
3.238000000000000256e+01 3.382000000000000028e+01 1.200000000000000000e+01 1.700000000000000000e+01 1.300000000000000000e+01 1.780000000000000071e+01
3.275999999999999801e+01 3.392000000000000171e+01 1.227999999999999936e+01 1.607999999999999829e+01 1.300000000000000000e+01 1.800000000000000000e+01
3.370000000000000284e+01 3.282000000000000028e+01 1.250000000000000000e+01 1.644000000000000128e+01 1.211999999999999922e+01 1.855999999999999872e+01
3.550000000000000000e+01 3.284000000000000341e+01 1.200000000000000000e+01 1.700000000000000000e+01 1.300000000000000000e+01 1.933999999999999986e+01
3.600000000000000000e+01 3.367999999999999972e+01 1.293999999999999950e+01 1.716000000000000014e+01 1.369999999999999929e+01 2.073999999999999844e+01
3.582000000000000028e+01 3.456000000000000227e+01 1.300000000000000000e+01 1.748000000000000043e+01 1.427999999999999936e+01 2.100000000000000000e+01
3.611999999999999744e+01 3.500000000000000000e+01 1.364000000000000057e+01 1.937999999999999901e+01 1.540000000000000036e+01 2.214000000000000057e+01
3.661999999999999744e+01 3.374000000000000199e+01 1.400000000000000000e+01 2.100000000000000000e+01 1.712000000000000099e+01 2.300000000000000000e+01
3.725999999999999801e+01 3.334000000000000341e+01 1.467999999999999972e+01 2.130000000000000071e+01 1.712000000000000099e+01 2.339999999999999858e+01
3.620000000000000284e+01 3.264000000000000057e+01 1.519999999999999929e+01 2.100000000000000000e+01 1.901999999999999957e+01 2.400000000000000000e+01
3.500000000000000000e+01 3.200000000000000000e+01 1.556000000000000050e+01 2.130000000000000071e+01 2.019999999999999929e+01 2.400000000000000000e+01
3.578000000000000114e+01 3.194000000000000128e+01 1.600000000000000000e+01 2.200000000000000000e+01 2.100000000000000000e+01 2.401999999999999957e+01
3.589999999999999858e+01 3.200000000000000000e+01 1.600000000000000000e+01 2.200000000000000000e+01 2.123999999999999844e+01 2.417999999999999972e+01
3.382000000000000028e+01 3.133999999999999986e+01 1.600000000000000000e+01 2.200000000000000000e+01 2.200000000000000000e+01 2.400000000000000000e+01
3.338000000000000256e+01 2.937999999999999901e+01 1.600000000000000000e+01 2.200000000000000000e+01 2.200000000000000000e+01 2.362000000000000099e+01
3.421999999999999886e+01 2.844000000000000128e+01 1.600000000000000000e+01 2.200000000000000000e+01 2.200000000000000000e+01 2.400000000000000000e+01
3.500000000000000000e+01 2.785999999999999943e+01 1.522000000000000064e+01 2.062000000000000099e+01 2.162000000000000099e+01 2.278000000000000114e+01
3.550000000000000000e+01 2.803999999999999915e+01 1.500000000000000000e+01 1.900000000000000000e+01 2.039999999999999858e+01 2.200000000000000000e+01
3.478000000000000114e+01 2.916000000000000014e+01 1.500000000000000000e+01 1.978000000000000114e+01 2.053999999999999915e+01 2.176000000000000156e+01
3.471999999999999886e+01 2.860000000000000142e+01 1.500000000000000000e+01 2.000000000000000000e+01 2.005999999999999872e+01 2.178000000000000114e+01
3.489999999999999858e+01 2.885999999999999943e+01 1.500000000000000000e+01 2.000000000000000000e+01 1.932000000000000028e+01 2.121999999999999886e+01
3.388000000000000256e+01 2.817999999999999972e+01 1.556000000000000050e+01 2.042000000000000171e+01 1.896000000000000085e+01 2.176000000000000156e+01
3.385999999999999943e+01 2.764000000000000057e+01 1.596000000000000085e+01 2.100000000000000000e+01 1.907999999999999829e+01 2.100000000000000000e+01
3.414000000000000057e+01 2.898000000000000043e+01 1.689999999999999858e+01 2.016000000000000014e+01 1.807999999999999829e+01 2.100000000000000000e+01
3.488000000000000256e+01 2.994000000000000128e+01 1.666000000000000014e+01 2.000000000000000000e+01 1.721999999999999886e+01 2.100000000000000000e+01
3.421999999999999886e+01 2.944000000000000128e+01 1.700000000000000000e+01 2.000000000000000000e+01 1.798000000000000043e+01 2.060000000000000142e+01
3.343999999999999773e+01 2.898000000000000043e+01 1.698000000000000043e+01 2.000000000000000000e+01 1.721999999999999886e+01 2.000000000000000000e+01
3.166000000000000014e+01 2.817999999999999972e+01 1.600000000000000000e+01 1.939999999999999858e+01 1.676000000000000156e+01 2.055999999999999872e+01
3.100000000000000000e+01 2.553999999999999915e+01 1.600000000000000000e+01 1.830000000000000071e+01 1.600000000000000000e+01 2.062000000000000099e+01
3.092000000000000171e+01 2.523999999999999844e+01 1.572000000000000064e+01 1.800000000000000000e+01 1.593999999999999950e+01 2.014000000000000057e+01
2.978000000000000114e+01 2.505999999999999872e+01 1.582000000000000028e+01 1.828000000000000114e+01 1.600000000000000000e+01 2.028000000000000114e+01
2.000000000000000000e+00 2.000000000000000000e+00 1.600000000000000000e+01 5.000000000000000000e+00 0.000000000000000000e+00 2.000000000000000000e+00
2.000000000000000000e+00 2.000000000000000000e+00 1.600000000000000000e+01 5.000000000000000000e+00 0.000000000000000000e+00 2.000000000000000000e+00
2.000000000000000000e+00 2.000000000000000000e+00 1.600000000000000000e+01 5.000000000000000000e+00 0.000000000000000000e+00 2.000000000000000000e+00
2.000000000000000000e+00 2.000000000000000000e+00 1.600000000000000000e+01 5.000000000000000000e+00 0.000000000000000000e+00 1.800000000000000044e+00
2.000000000000000000e+00 2.000000000000000000e+00 1.590000000000000036e+01 5.000000000000000000e+00 0.000000000000000000e+00 1.199999999999999956e+00
2.000000000000000000e+00 2.000000000000000000e+00 1.500000000000000000e+01 5.000000000000000000e+00 0.000000000000000000e+00 2.000000000000000000e+00
2.000000000000000000e+00 2.000000000000000000e+00 1.500000000000000000e+01 5.000000000000000000e+00 0.000000000000000000e+00 2.000000000000000000e+00
2.000000000000000000e+00 2.000000000000000000e+00 1.500000000000000000e+01 5.000000000000000000e+00 0.000000000000000000e+00 2.000000000000000000e+00
2.000000000000000000e+00 2.000000000000000000e+00 1.474000000000000021e+01 5.000000000000000000e+00 0.000000000000000000e+00 2.000000000000000000e+00
2.000000000000000000e+00 2.000000000000000000e+00 1.400000000000000000e+01 5.000000000000000000e+00 0.000000000000000000e+00 2.000000000000000000e+00
2.000000000000000000e+00 2.000000000000000000e+00 1.400000000000000000e+01 5.000000000000000000e+00 0.000000000000000000e+00 2.000000000000000000e+00
2.000000000000000000e+00 2.000000000000000000e+00 1.356000000000000050e+01 5.000000000000000000e+00 0.000000000000000000e+00 2.000000000000000000e+00
2.000000000000000000e+00 2.000000000000000000e+00 1.300000000000000000e+01 5.000000000000000000e+00 0.000000000000000000e+00 2.000000000000000000e+00
2.000000000000000000e+00 2.000000000000000000e+00 1.300000000000000000e+01 5.000000000000000000e+00 0.000000000000000000e+00 2.000000000000000000e+00
2.000000000000000000e+00 2.000000000000000000e+00 1.232000000000000028e+01 5.000000000000000000e+00 4.799999999999999822e-01 2.000000000000000000e+00
2.000000000000000000e+00 2.000000000000000000e+00 1.200000000000000000e+01 5.000000000000000000e+00 1.000000000000000000e+00 2.000000000000000000e+00
2.000000000000000000e+00 2.000000000000000000e+00 1.200000000000000000e+01 5.000000000000000000e+00 1.000000000000000000e+00 2.000000000000000000e+00
2.000000000000000000e+00 2.000000000000000000e+00 1.208000000000000007e+01 5.000000000000000000e+00 1.000000000000000000e+00 2.000000000000000000e+00
2.000000000000000000e+00 2.000000000000000000e+00 1.283999999999999986e+01 5.000000000000000000e+00 1.000000000000000000e+00 2.000000000000000000e+00
2.000000000000000000e+00 2.000000000000000000e+00 1.209999999999999964e+01 5.240000000000000213e+00 1.000000000000000000e+00 2.000000000000000000e+00
2.000000000000000000e+00 2.000000000000000000e+00 1.214000000000000057e+01 6.000000000000000000e+00 1.820000000000000062e+00 2.000000000000000000e+00
2.680000000000000160e+00 2.000000000000000000e+00 1.300000000000000000e+01 6.000000000000000000e+00 2.000000000000000000e+00 2.000000000000000000e+00
3.000000000000000000e+00 2.000000000000000000e+00 1.300000000000000000e+01 6.000000000000000000e+00 2.000000000000000000e+00 2.000000000000000000e+00
3.000000000000000000e+00 2.000000000000000000e+00 1.348000000000000043e+01 6.000000000000000000e+00 2.000000000000000000e+00 2.000000000000000000e+00
3.000000000000000000e+00 2.000000000000000000e+00 1.400000000000000000e+01 6.000000000000000000e+00 1.520000000000000018e+00 2.000000000000000000e+00
3.000000000000000000e+00 2.000000000000000000e+00 1.400000000000000000e+01 6.000000000000000000e+00 1.000000000000000000e+00 2.000000000000000000e+00
3.000000000000000000e+00 2.000000000000000000e+00 1.400000000000000000e+01 6.000000000000000000e+00 1.000000000000000000e+00 2.000000000000000000e+00
3.000000000000000000e+00 2.000000000000000000e+00 1.374000000000000021e+01 6.000000000000000000e+00 1.000000000000000000e+00 2.000000000000000000e+00
3.000000000000000000e+00 2.000000000000000000e+00 1.300000000000000000e+01 6.000000000000000000e+00 1.000000000000000000e+00 2.000000000000000000e+00
3.000000000000000000e+00 2.000000000000000000e+00 1.372000000000000064e+01 5.820000000000000284e+00 8.399999999999999689e-01 2.000000000000000000e+00
3.000000000000000000e+00 2.000000000000000000e+00 1.300000000000000000e+01 5.000000000000000000e+00 0.000000000000000000e+00 2.000000000000000000e+00
3.000000000000000000e+00 2.000000000000000000e+00 1.293999999999999950e+01 5.000000000000000000e+00 0.000000000000000000e+00 2.000000000000000000e+00
3.000000000000000000e+00 2.000000000000000000e+00 1.232000000000000028e+01 5.000000000000000000e+00 0.000000000000000000e+00 2.000000000000000000e+00
3.000000000000000000e+00 2.000000000000000000e+00 1.300000000000000000e+01 5.000000000000000000e+00 0.000000000000000000e+00 2.000000000000000000e+00
2.240000000000000213e+00 2.000000000000000000e+00 1.306000000000000050e+01 5.000000000000000000e+00 0.000000000000000000e+00 2.000000000000000000e+00
2.600000000000000089e+00 2.000000000000000000e+00 1.400000000000000000e+01 5.000000000000000000e+00 0.000000000000000000e+00 2.000000000000000000e+00
3.000000000000000000e+00 2.000000000000000000e+00 1.400000000000000000e+01 5.000000000000000000e+00 0.000000000000000000e+00 2.000000000000000000e+00
2.040000000000000036e+00 2.000000000000000000e+00 1.400000000000000000e+01 5.000000000000000000e+00 0.000000000000000000e+00 2.000000000000000000e+00
2.000000000000000000e+00 2.000000000000000000e+00 1.474000000000000021e+01 5.000000000000000000e+00 0.000000000000000000e+00 2.000000000000000000e+00
2.000000000000000000e+00 2.000000000000000000e+00 1.519999999999999929e+01 5.000000000000000000e+00 0.000000000000000000e+00 2.520000000000000018e+00
0.000000000000000000e+00 1.000000000000000000e+00 3.000000000000000000e+00 1.860000000000000098e+00 0.000000000000000000e+00 1.000000000000000000e+00
0.000000000000000000e+00 1.000000000000000000e+00 2.700000000000000178e+00 1.659999999999999920e+00 0.000000000000000000e+00 1.000000000000000000e+00
0.000000000000000000e+00 1.000000000000000000e+00 2.000000000000000000e+00 2.000000000000000000e+00 0.000000000000000000e+00 1.000000000000000000e+00
0.000000000000000000e+00 1.000000000000000000e+00 2.000000000000000000e+00 1.320000000000000062e+00 0.000000000000000000e+00 1.000000000000000000e+00
0.000000000000000000e+00 1.000000000000000000e+00 2.000000000000000000e+00 1.000000000000000000e+00 0.000000000000000000e+00 1.000000000000000000e+00
0.000000000000000000e+00 1.000000000000000000e+00 2.000000000000000000e+00 1.239999999999999991e+00 0.000000000000000000e+00 1.000000000000000000e+00
0.000000000000000000e+00 1.000000000000000000e+00 2.000000000000000000e+00 2.000000000000000000e+00 0.000000000000000000e+00 1.000000000000000000e+00
0.000000000000000000e+00 1.000000000000000000e+00 2.000000000000000000e+00 1.340000000000000080e+00 0.000000000000000000e+00 1.000000000000000000e+00
0.000000000000000000e+00 1.000000000000000000e+00 2.000000000000000000e+00 2.000000000000000000e+00 0.000000000000000000e+00 1.000000000000000000e+00
0.000000000000000000e+00 1.000000000000000000e+00 2.000000000000000000e+00 2.000000000000000000e+00 0.000000000000000000e+00 1.000000000000000000e+00
0.000000000000000000e+00 1.000000000000000000e+00 2.000000000000000000e+00 2.000000000000000000e+00 0.000000000000000000e+00 1.000000000000000000e+00
0.000000000000000000e+00 1.000000000000000000e+00 2.000000000000000000e+00 2.000000000000000000e+00 0.000000000000000000e+00 1.000000000000000000e+00
0.000000000000000000e+00 1.000000000000000000e+00 2.000000000000000000e+00 2.000000000000000000e+00 0.000000000000000000e+00 1.000000000000000000e+00
0.000000000000000000e+00 1.000000000000000000e+00 2.000000000000000000e+00 2.000000000000000000e+00 0.000000000000000000e+00 1.000000000000000000e+00
0.000000000000000000e+00 1.000000000000000000e+00 2.000000000000000000e+00 2.000000000000000000e+00 0.000000000000000000e+00 1.000000000000000000e+00
0.000000000000000000e+00 1.000000000000000000e+00 2.000000000000000000e+00 2.000000000000000000e+00 0.000000000000000000e+00 1.000000000000000000e+00
0.000000000000000000e+00 1.000000000000000000e+00 2.000000000000000000e+00 2.000000000000000000e+00 0.000000000000000000e+00 1.000000000000000000e+00
0.000000000000000000e+00 1.000000000000000000e+00 2.000000000000000000e+00 2.000000000000000000e+00 0.000000000000000000e+00 1.000000000000000000e+00
0.000000000000000000e+00 1.000000000000000000e+00 2.000000000000000000e+00 2.000000000000000000e+00 0.000000000000000000e+00 1.000000000000000000e+00
0.000000000000000000e+00 1.000000000000000000e+00 2.000000000000000000e+00 2.000000000000000000e+00 0.000000000000000000e+00 1.000000000000000000e+00
0.000000000000000000e+00 1.000000000000000000e+00 2.000000000000000000e+00 2.000000000000000000e+00 0.000000000000000000e+00 1.000000000000000000e+00
0.000000000000000000e+00 1.000000000000000000e+00 2.000000000000000000e+00 2.000000000000000000e+00 0.000000000000000000e+00 1.000000000000000000e+00
0.000000000000000000e+00 1.000000000000000000e+00 2.000000000000000000e+00 2.000000000000000000e+00 0.000000000000000000e+00 1.000000000000000000e+00
2.600000000000000089e-01 2.160000000000000142e+00 2.000000000000000000e+00 2.000000000000000000e+00 0.000000000000000000e+00 1.000000000000000000e+00
1.000000000000000000e+00 4.000000000000000000e+00 2.000000000000000000e+00 2.000000000000000000e+00 0.000000000000000000e+00 1.000000000000000000e+00
1.000000000000000000e+00 4.000000000000000000e+00 2.000000000000000000e+00 2.000000000000000000e+00 0.000000000000000000e+00 1.000000000000000000e+00
1.000000000000000000e+00 4.000000000000000000e+00 2.000000000000000000e+00 2.000000000000000000e+00 0.000000000000000000e+00 1.000000000000000000e+00
1.000000000000000000e+00 4.000000000000000000e+00 2.000000000000000000e+00 2.000000000000000000e+00 0.000000000000000000e+00 1.000000000000000000e+00
1.000000000000000000e+00 4.000000000000000000e+00 2.000000000000000000e+00 2.000000000000000000e+00 0.000000000000000000e+00 1.000000000000000000e+00
1.000000000000000000e+00 4.000000000000000000e+00 2.000000000000000000e+00 2.000000000000000000e+00 0.000000000000000000e+00 1.000000000000000000e+00
1.000000000000000000e+00 4.000000000000000000e+00 2.000000000000000000e+00 2.000000000000000000e+00 0.000000000000000000e+00 1.000000000000000000e+00
1.000000000000000000e+00 4.000000000000000000e+00 2.000000000000000000e+00 2.000000000000000000e+00 0.000000000000000000e+00 1.000000000000000000e+00
1.000000000000000000e+00 4.000000000000000000e+00 2.000000000000000000e+00 2.000000000000000000e+00 0.000000000000000000e+00 1.000000000000000000e+00
7.199999999999999734e-01 2.779999999999999805e+00 2.000000000000000000e+00 2.000000000000000000e+00 0.000000000000000000e+00 1.000000000000000000e+00
0.000000000000000000e+00 1.000000000000000000e+00 2.000000000000000000e+00 2.000000000000000000e+00 0.000000000000000000e+00 1.000000000000000000e+00
0.000000000000000000e+00 1.000000000000000000e+00 2.000000000000000000e+00 2.000000000000000000e+00 0.000000000000000000e+00 1.000000000000000000e+00
0.000000000000000000e+00 1.000000000000000000e+00 2.000000000000000000e+00 2.000000000000000000e+00 0.000000000000000000e+00 1.000000000000000000e+00
0.000000000000000000e+00 1.000000000000000000e+00 2.000000000000000000e+00 2.000000000000000000e+00 0.000000000000000000e+00 1.000000000000000000e+00
0.000000000000000000e+00 1.000000000000000000e+00 2.000000000000000000e+00 2.000000000000000000e+00 0.000000000000000000e+00 1.000000000000000000e+00
0.000000000000000000e+00 1.000000000000000000e+00 2.000000000000000000e+00 2.000000000000000000e+00 0.000000000000000000e+00 1.000000000000000000e+00
1.590000000000000036e+01 1.869999999999999929e+01 7.301999999999999602e+01 1.000000000000000000e+01 7.000000000000000000e+00 7.000000000000000000e+00
1.440000000000000036e+01 1.844000000000000128e+01 7.362000000000000455e+01 1.000000000000000000e+01 7.000000000000000000e+00 7.000000000000000000e+00
1.400000000000000000e+01 1.828000000000000114e+01 7.015999999999999659e+01 9.839999999999999858e+00 7.000000000000000000e+00 7.000000000000000000e+00
1.377999999999999936e+01 1.800000000000000000e+01 6.800000000000000000e+01 9.000000000000000000e+00 6.480000000000000426e+00 7.000000000000000000e+00
1.330000000000000071e+01 1.803999999999999915e+01 6.542000000000000171e+01 9.000000000000000000e+00 7.000000000000000000e+00 7.200000000000000178e+00
1.303999999999999915e+01 1.830000000000000071e+01 6.317999999999999972e+01 8.839999999999999858e+00 7.000000000000000000e+00 7.000000000000000000e+00
1.300000000000000000e+01 1.832000000000000028e+01 6.132000000000000028e+01 9.339999999999999858e+00 7.320000000000000284e+00 7.000000000000000000e+00
1.300000000000000000e+01 1.800000000000000000e+01 6.082000000000000028e+01 1.003999999999999915e+01 8.000000000000000000e+00 6.839999999999999858e+00
1.300000000000000000e+01 1.800000000000000000e+01 6.039999999999999858e+01 1.024000000000000021e+01 8.000000000000000000e+00 6.200000000000000178e+00
1.216000000000000014e+01 1.789999999999999858e+01 5.839999999999999858e+01 1.100000000000000000e+01 8.000000000000000000e+00 7.000000000000000000e+00
1.200000000000000000e+01 1.646000000000000085e+01 5.585999999999999943e+01 1.100000000000000000e+01 8.000000000000000000e+00 7.000000000000000000e+00
1.198000000000000043e+01 1.600000000000000000e+01 4.934000000000000341e+01 1.100000000000000000e+01 8.000000000000000000e+00 7.000000000000000000e+00
1.116000000000000014e+01 1.600000000000000000e+01 4.625999999999999801e+01 1.100000000000000000e+01 8.119999999999999218e+00 7.000000000000000000e+00
1.166000000000000014e+01 1.564000000000000057e+01 4.425999999999999801e+01 1.174000000000000021e+01 9.000000000000000000e+00 7.000000000000000000e+00
1.200000000000000000e+01 1.508000000000000007e+01 4.357999999999999829e+01 1.200000000000000000e+01 8.359999999999999432e+00 7.000000000000000000e+00
1.200000000000000000e+01 1.500000000000000000e+01 4.946000000000000085e+01 1.200000000000000000e+01 8.599999999999999645e+00 7.660000000000000142e+00
1.200000000000000000e+01 1.500000000000000000e+01 5.420000000000000284e+01 1.169999999999999929e+01 8.000000000000000000e+00 8.000000000000000000e+00
1.201999999999999957e+01 1.590000000000000036e+01 5.602000000000000313e+01 1.100000000000000000e+01 8.000000000000000000e+00 8.000000000000000000e+00
1.200000000000000000e+01 1.596000000000000085e+01 5.761999999999999744e+01 1.100000000000000000e+01 8.000000000000000000e+00 8.820000000000000284e+00
1.222000000000000064e+01 1.575999999999999979e+01 5.632000000000000028e+01 1.100000000000000000e+01 8.640000000000000568e+00 9.000000000000000000e+00
1.274000000000000021e+01 1.635999999999999943e+01 5.679999999999999716e+01 1.100000000000000000e+01 1.000000000000000000e+01 9.000000000000000000e+00
1.300000000000000000e+01 1.700000000000000000e+01 5.757999999999999829e+01 1.100000000000000000e+01 1.022000000000000064e+01 9.000000000000000000e+00
1.300000000000000000e+01 1.700000000000000000e+01 5.800000000000000000e+01 1.196000000000000085e+01 1.100000000000000000e+01 9.960000000000000853e+00
1.300000000000000000e+01 1.767999999999999972e+01 5.800000000000000000e+01 1.193999999999999950e+01 1.100000000000000000e+01 1.000000000000000000e+01
1.235999999999999943e+01 1.787999999999999901e+01 5.824000000000000199e+01 1.200000000000000000e+01 1.169999999999999929e+01 1.000000000000000000e+01
1.209999999999999964e+01 1.800000000000000000e+01 5.456000000000000227e+01 1.222000000000000064e+01 1.200000000000000000e+01 1.003999999999999915e+01
1.203999999999999915e+01 1.800000000000000000e+01 5.042000000000000171e+01 1.300000000000000000e+01 1.232000000000000028e+01 1.100000000000000000e+01
1.225999999999999979e+01 1.746000000000000085e+01 5.138000000000000256e+01 1.324000000000000021e+01 1.300000000000000000e+01 1.174000000000000021e+01
1.341999999999999993e+01 1.746000000000000085e+01 5.184000000000000341e+01 1.383999999999999986e+01 1.300000000000000000e+01 1.200000000000000000e+01
1.400000000000000000e+01 1.800000000000000000e+01 5.239999999999999858e+01 1.400000000000000000e+01 1.316000000000000014e+01 1.200000000000000000e+01
1.400000000000000000e+01 1.798000000000000043e+01 5.203999999999999915e+01 1.419999999999999929e+01 1.266000000000000014e+01 1.280000000000000071e+01
1.400000000000000000e+01 1.800000000000000000e+01 5.307999999999999829e+01 1.500000000000000000e+01 1.269999999999999929e+01 1.269999999999999929e+01
1.400000000000000000e+01 1.800000000000000000e+01 5.335999999999999943e+01 1.403999999999999915e+01 1.200000000000000000e+01 1.300000000000000000e+01
1.400000000000000000e+01 1.701999999999999957e+01 5.400000000000000000e+01 1.400000000000000000e+01 1.200000000000000000e+01 1.300000000000000000e+01
1.398000000000000043e+01 1.664000000000000057e+01 5.364000000000000057e+01 1.400000000000000000e+01 1.200000000000000000e+01 1.300000000000000000e+01
1.319999999999999929e+01 1.644000000000000128e+01 5.129999999999999716e+01 1.340000000000000036e+01 1.200000000000000000e+01 1.277999999999999936e+01
1.300000000000000000e+01 1.590000000000000036e+01 5.046000000000000085e+01 1.209999999999999964e+01 1.108000000000000007e+01 1.180000000000000071e+01
1.230000000000000071e+01 1.500000000000000000e+01 4.525999999999999801e+01 1.148000000000000043e+01 1.100000000000000000e+01 1.048000000000000043e+01
1.043999999999999950e+01 1.411999999999999922e+01 4.097999999999999687e+01 1.100000000000000000e+01 1.019999999999999929e+01 9.660000000000000142e+00
9.000000000000000000e+00 1.288000000000000078e+01 3.779999999999999716e+01 1.025999999999999979e+01 9.300000000000000711e+00 9.000000000000000000e+00
1.000000000000000000e+00 2.000000000000000000e+00 5.339999999999999858e+00 5.000000000000000000e+00 1.000000000000000000e+00 3.000000000000000000e+00
1.000000000000000000e+00 2.000000000000000000e+00 5.000000000000000000e+00 5.000000000000000000e+00 1.000000000000000000e+00 3.000000000000000000e+00
1.000000000000000000e+00 2.000000000000000000e+00 5.000000000000000000e+00 5.000000000000000000e+00 1.000000000000000000e+00 3.520000000000000018e+00
1.000000000000000000e+00 2.000000000000000000e+00 5.000000000000000000e+00 5.000000000000000000e+00 1.000000000000000000e+00 4.000000000000000000e+00
1.000000000000000000e+00 2.000000000000000000e+00 5.000000000000000000e+00 5.000000000000000000e+00 1.000000000000000000e+00 4.000000000000000000e+00
1.000000000000000000e+00 2.000000000000000000e+00 4.940000000000000391e+00 5.000000000000000000e+00 1.000000000000000000e+00 4.000000000000000000e+00
1.000000000000000000e+00 2.000000000000000000e+00 4.139999999999999680e+00 5.000000000000000000e+00 8.399999999999999689e-01 3.939999999999999947e+00
1.000000000000000000e+00 2.000000000000000000e+00 5.040000000000000036e+00 5.799999999999999822e+00 1.000000000000000000e+00 3.000000000000000000e+00
1.800000000000000044e+00 2.000000000000000000e+00 6.000000000000000000e+00 6.000000000000000000e+00 1.000000000000000000e+00 3.000000000000000000e+00
2.000000000000000000e+00 2.000000000000000000e+00 6.000000000000000000e+00 6.219999999999999751e+00 1.000000000000000000e+00 2.580000000000000071e+00
2.000000000000000000e+00 2.279999999999999805e+00 6.900000000000000355e+00 7.080000000000000071e+00 1.739999999999999991e+00 2.839999999999999858e+00
2.859999999999999876e+00 3.000000000000000000e+00 8.820000000000000284e+00 8.000000000000000000e+00 2.000000000000000000e+00 3.819999999999999840e+00
3.000000000000000000e+00 3.000000000000000000e+00 1.058000000000000007e+01 8.880000000000000782e+00 2.759999999999999787e+00 4.719999999999999751e+00
3.140000000000000124e+00 3.560000000000000053e+00 1.158000000000000007e+01 9.000000000000000000e+00 3.640000000000000124e+00 5.000000000000000000e+00
4.000000000000000000e+00 4.000000000000000000e+00 1.240000000000000036e+01 9.859999999999999432e+00 4.000000000000000000e+00 5.000000000000000000e+00
4.160000000000000142e+00 4.000000000000000000e+00 1.398000000000000043e+01 1.000000000000000000e+01 4.000000000000000000e+00 5.879999999999999893e+00
5.000000000000000000e+00 5.000000000000000000e+00 1.400000000000000000e+01 1.085999999999999943e+01 4.160000000000000142e+00 6.000000000000000000e+00
5.000000000000000000e+00 5.000000000000000000e+00 1.400000000000000000e+01 1.100000000000000000e+01 4.980000000000000426e+00 6.000000000000000000e+00
5.000000000000000000e+00 5.000000000000000000e+00 1.400000000000000000e+01 1.100000000000000000e+01 5.000000000000000000e+00 6.580000000000000071e+00
5.000000000000000000e+00 5.820000000000000284e+00 1.585999999999999943e+01 1.100000000000000000e+01 5.900000000000000355e+00 7.000000000000000000e+00
5.139999999999999680e+00 6.000000000000000000e+00 1.676000000000000156e+01 1.146000000000000085e+01 6.000000000000000000e+00 7.000000000000000000e+00
5.740000000000000213e+00 6.000000000000000000e+00 1.648000000000000043e+01 1.138000000000000078e+01 6.000000000000000000e+00 7.000000000000000000e+00
5.000000000000000000e+00 6.000000000000000000e+00 1.600000000000000000e+01 1.100000000000000000e+01 5.679999999999999716e+00 6.679999999999999716e+00
5.000000000000000000e+00 6.000000000000000000e+00 1.533999999999999986e+01 1.100000000000000000e+01 5.000000000000000000e+00 6.000000000000000000e+00
5.000000000000000000e+00 6.000000000000000000e+00 1.500000000000000000e+01 1.100000000000000000e+01 5.160000000000000142e+00 6.000000000000000000e+00
5.000000000000000000e+00 6.000000000000000000e+00 1.400000000000000000e+01 1.001999999999999957e+01 5.740000000000000213e+00 6.000000000000000000e+00
4.459999999999999964e+00 5.500000000000000000e+00 1.443999999999999950e+01 1.000000000000000000e+01 5.400000000000000355e+00 6.000000000000000000e+00
4.000000000000000000e+00 5.000000000000000000e+00 1.441999999999999993e+01 1.000000000000000000e+01 5.000000000000000000e+00 6.000000000000000000e+00
4.000000000000000000e+00 5.000000000000000000e+00 1.419999999999999929e+01 9.820000000000000284e+00 4.879999999999999893e+00 6.000000000000000000e+00
4.000000000000000000e+00 4.959999999999999964e+00 1.340000000000000036e+01 9.000000000000000000e+00 4.000000000000000000e+00 6.000000000000000000e+00
4.000000000000000000e+00 4.000000000000000000e+00 1.235999999999999943e+01 8.480000000000000426e+00 4.000000000000000000e+00 5.759999999999999787e+00
4.000000000000000000e+00 4.000000000000000000e+00 1.200000000000000000e+01 8.060000000000000497e+00 3.060000000000000053e+00 5.000000000000000000e+00
4.000000000000000000e+00 4.000000000000000000e+00 1.200000000000000000e+01 8.000000000000000000e+00 3.000000000000000000e+00 5.000000000000000000e+00
3.540000000000000036e+00 3.580000000000000071e+00 1.200000000000000000e+01 8.000000000000000000e+00 3.000000000000000000e+00 5.000000000000000000e+00
3.819999999999999840e+00 3.839999999999999858e+00 1.238000000000000078e+01 8.000000000000000000e+00 3.000000000000000000e+00 5.000000000000000000e+00
3.640000000000000124e+00 3.959999999999999964e+00 1.324000000000000021e+01 8.660000000000000142e+00 2.180000000000000160e+00 5.000000000000000000e+00
4.000000000000000000e+00 3.140000000000000124e+00 1.300000000000000000e+01 8.000000000000000000e+00 2.439999999999999947e+00 5.000000000000000000e+00
4.000000000000000000e+00 3.000000000000000000e+00 1.300000000000000000e+01 8.000000000000000000e+00 2.080000000000000071e+00 5.000000000000000000e+00
4.000000000000000000e+00 3.000000000000000000e+00 1.382000000000000028e+01 8.000000000000000000e+00 2.000000000000000000e+00 5.040000000000000036e+00
4.000000000000000000e+00 3.000000000000000000e+00 1.358000000000000007e+01 8.199999999999999289e+00 2.779999999999999805e+00 5.219999999999999751e+00
4.000000000000000000e+00 4.000000000000000000e+00 1.256000000000000050e+01 9.359999999999999432e+00 4.320000000000000284e+00 7.000000000000000000e+00
4.000000000000000000e+00 4.000000000000000000e+00 1.200000000000000000e+01 9.339999999999999858e+00 4.980000000000000426e+00 7.000000000000000000e+00
4.540000000000000036e+00 4.000000000000000000e+00 1.253999999999999915e+01 9.000000000000000000e+00 5.000000000000000000e+00 6.660000000000000142e+00
5.000000000000000000e+00 4.000000000000000000e+00 1.300000000000000000e+01 9.800000000000000711e+00 5.519999999999999574e+00 6.940000000000000391e+00
5.000000000000000000e+00 4.000000000000000000e+00 1.300000000000000000e+01 9.339999999999999858e+00 5.080000000000000071e+00 6.000000000000000000e+00
4.580000000000000071e+00 4.000000000000000000e+00 1.350000000000000000e+01 1.000000000000000000e+01 5.000000000000000000e+00 6.000000000000000000e+00
4.000000000000000000e+00 4.000000000000000000e+00 1.317999999999999972e+01 1.000000000000000000e+01 5.000000000000000000e+00 6.000000000000000000e+00
4.019999999999999574e+00 4.000000000000000000e+00 1.300000000000000000e+01 1.000000000000000000e+01 5.000000000000000000e+00 6.000000000000000000e+00
4.000000000000000000e+00 4.000000000000000000e+00 1.300000000000000000e+01 1.000000000000000000e+01 5.000000000000000000e+00 6.000000000000000000e+00
4.000000000000000000e+00 4.000000000000000000e+00 1.324000000000000021e+01 1.096000000000000085e+01 5.000000000000000000e+00 6.120000000000000107e+00
4.679999999999999716e+00 4.000000000000000000e+00 1.388000000000000078e+01 1.083999999999999986e+01 5.540000000000000036e+00 6.639999999999999680e+00
5.000000000000000000e+00 4.000000000000000000e+00 1.427999999999999936e+01 1.043999999999999950e+01 6.000000000000000000e+00 6.000000000000000000e+00
4.500000000000000000e+00 4.000000000000000000e+00 1.441999999999999993e+01 1.067999999999999972e+01 6.000000000000000000e+00 6.000000000000000000e+00
4.160000000000000142e+00 4.000000000000000000e+00 1.459999999999999964e+01 1.011999999999999922e+01 5.000000000000000000e+00 6.000000000000000000e+00
4.179999999999999716e+00 4.000000000000000000e+00 1.500000000000000000e+01 1.061999999999999922e+01 5.000000000000000000e+00 6.000000000000000000e+00
4.000000000000000000e+00 4.000000000000000000e+00 1.485999999999999943e+01 1.100000000000000000e+01 5.000000000000000000e+00 6.000000000000000000e+00
4.040000000000000036e+00 4.000000000000000000e+00 1.500000000000000000e+01 1.100000000000000000e+01 5.000000000000000000e+00 6.000000000000000000e+00
4.620000000000000107e+00 4.000000000000000000e+00 1.548000000000000043e+01 1.108000000000000007e+01 5.700000000000000178e+00 6.000000000000000000e+00
5.000000000000000000e+00 4.440000000000000391e+00 1.783999999999999986e+01 1.185999999999999943e+01 6.000000000000000000e+00 6.000000000000000000e+00
5.000000000000000000e+00 5.000000000000000000e+00 1.776000000000000156e+01 1.100000000000000000e+01 6.000000000000000000e+00 5.820000000000000284e+00
5.000000000000000000e+00 5.000000000000000000e+00 1.800000000000000000e+01 1.100000000000000000e+01 5.940000000000000391e+00 5.339999999999999858e+00
5.000000000000000000e+00 5.000000000000000000e+00 1.814000000000000057e+01 1.100000000000000000e+01 5.900000000000000355e+00 5.360000000000000320e+00
5.000000000000000000e+00 5.000000000000000000e+00 1.800000000000000000e+01 1.100000000000000000e+01 6.000000000000000000e+00 5.440000000000000391e+00
5.000000000000000000e+00 5.000000000000000000e+00 1.800000000000000000e+01 1.100000000000000000e+01 6.000000000000000000e+00 5.040000000000000036e+00
5.000000000000000000e+00 5.000000000000000000e+00 1.816000000000000014e+01 1.075999999999999979e+01 6.000000000000000000e+00 5.000000000000000000e+00
5.000000000000000000e+00 5.000000000000000000e+00 1.900000000000000000e+01 1.000000000000000000e+01 6.000000000000000000e+00 5.000000000000000000e+00
5.000000000000000000e+00 5.000000000000000000e+00 1.900000000000000000e+01 1.000000000000000000e+01 6.000000000000000000e+00 5.000000000000000000e+00
5.000000000000000000e+00 4.980000000000000426e+00 1.937999999999999901e+01 9.839999999999999858e+00 5.599999999999999645e+00 5.000000000000000000e+00
5.000000000000000000e+00 4.139999999999999680e+00 1.800000000000000000e+01 9.160000000000000142e+00 5.000000000000000000e+00 5.000000000000000000e+00
5.000000000000000000e+00 4.000000000000000000e+00 1.807999999999999829e+01 9.759999999999999787e+00 5.080000000000000071e+00 5.000000000000000000e+00
4.900000000000000355e+00 4.000000000000000000e+00 1.900000000000000000e+01 9.000000000000000000e+00 5.019999999999999574e+00 5.000000000000000000e+00
4.200000000000000178e+00 4.000000000000000000e+00 1.812000000000000099e+01 9.640000000000000568e+00 5.000000000000000000e+00 5.000000000000000000e+00
4.000000000000000000e+00 4.000000000000000000e+00 1.801999999999999957e+01 1.000000000000000000e+01 5.000000000000000000e+00 5.000000000000000000e+00
4.000000000000000000e+00 4.000000000000000000e+00 1.800000000000000000e+01 1.000000000000000000e+01 5.000000000000000000e+00 5.000000000000000000e+00
4.000000000000000000e+00 4.000000000000000000e+00 1.762000000000000099e+01 1.000000000000000000e+01 5.000000000000000000e+00 5.000000000000000000e+00
4.000000000000000000e+00 4.000000000000000000e+00 1.685999999999999943e+01 1.000000000000000000e+01 5.000000000000000000e+00 5.000000000000000000e+00
4.000000000000000000e+00 4.000000000000000000e+00 1.644000000000000128e+01 1.000000000000000000e+01 5.000000000000000000e+00 5.000000000000000000e+00
4.000000000000000000e+00 4.000000000000000000e+00 1.533999999999999986e+01 1.000000000000000000e+01 5.000000000000000000e+00 4.799999999999999822e+00
4.000000000000000000e+00 4.000000000000000000e+00 1.617999999999999972e+01 1.000000000000000000e+01 5.000000000000000000e+00 4.099999999999999645e+00
4.000000000000000000e+00 4.000000000000000000e+00 1.830000000000000071e+01 1.040000000000000036e+01 4.959999999999999964e+00 4.400000000000000355e+00
0.000000000000000000e+00 2.000000000000000000e+00 2.000000000000000000e+00 2.000000000000000000e+00 0.000000000000000000e+00 1.000000000000000000e+00
0.000000000000000000e+00 2.000000000000000000e+00 2.000000000000000000e+00 2.000000000000000000e+00 0.000000000000000000e+00 1.000000000000000000e+00
0.000000000000000000e+00 2.000000000000000000e+00 2.000000000000000000e+00 2.000000000000000000e+00 0.000000000000000000e+00 1.000000000000000000e+00
0.000000000000000000e+00 2.000000000000000000e+00 2.000000000000000000e+00 2.000000000000000000e+00 0.000000000000000000e+00 1.000000000000000000e+00
0.000000000000000000e+00 2.000000000000000000e+00 2.000000000000000000e+00 2.000000000000000000e+00 0.000000000000000000e+00 1.000000000000000000e+00
0.000000000000000000e+00 2.000000000000000000e+00 2.000000000000000000e+00 2.000000000000000000e+00 0.000000000000000000e+00 1.000000000000000000e+00
0.000000000000000000e+00 2.000000000000000000e+00 2.000000000000000000e+00 2.000000000000000000e+00 0.000000000000000000e+00 1.000000000000000000e+00
0.000000000000000000e+00 2.000000000000000000e+00 2.000000000000000000e+00 2.419999999999999929e+00 0.000000000000000000e+00 1.000000000000000000e+00
0.000000000000000000e+00 2.000000000000000000e+00 2.000000000000000000e+00 2.720000000000000195e+00 0.000000000000000000e+00 1.000000000000000000e+00
0.000000000000000000e+00 2.000000000000000000e+00 2.000000000000000000e+00 3.000000000000000000e+00 0.000000000000000000e+00 1.000000000000000000e+00
0.000000000000000000e+00 2.000000000000000000e+00 2.000000000000000000e+00 3.000000000000000000e+00 0.000000000000000000e+00 1.000000000000000000e+00
0.000000000000000000e+00 2.000000000000000000e+00 2.000000000000000000e+00 3.000000000000000000e+00 0.000000000000000000e+00 1.000000000000000000e+00
0.000000000000000000e+00 2.000000000000000000e+00 2.000000000000000000e+00 3.000000000000000000e+00 0.000000000000000000e+00 1.000000000000000000e+00
0.000000000000000000e+00 2.000000000000000000e+00 2.000000000000000000e+00 3.000000000000000000e+00 0.000000000000000000e+00 1.000000000000000000e+00
0.000000000000000000e+00 2.000000000000000000e+00 2.000000000000000000e+00 3.000000000000000000e+00 0.000000000000000000e+00 1.000000000000000000e+00
0.000000000000000000e+00 2.000000000000000000e+00 2.000000000000000000e+00 3.000000000000000000e+00 0.000000000000000000e+00 1.000000000000000000e+00
0.000000000000000000e+00 2.000000000000000000e+00 2.000000000000000000e+00 3.000000000000000000e+00 0.000000000000000000e+00 1.000000000000000000e+00
0.000000000000000000e+00 2.000000000000000000e+00 2.000000000000000000e+00 3.000000000000000000e+00 0.000000000000000000e+00 1.000000000000000000e+00
0.000000000000000000e+00 2.000000000000000000e+00 2.000000000000000000e+00 3.000000000000000000e+00 0.000000000000000000e+00 1.000000000000000000e+00
0.000000000000000000e+00 2.000000000000000000e+00 2.000000000000000000e+00 3.000000000000000000e+00 0.000000000000000000e+00 1.000000000000000000e+00
0.000000000000000000e+00 2.000000000000000000e+00 2.000000000000000000e+00 3.000000000000000000e+00 0.000000000000000000e+00 1.000000000000000000e+00
0.000000000000000000e+00 2.000000000000000000e+00 2.000000000000000000e+00 3.000000000000000000e+00 0.000000000000000000e+00 1.000000000000000000e+00
0.000000000000000000e+00 2.000000000000000000e+00 2.000000000000000000e+00 3.000000000000000000e+00 0.000000000000000000e+00 1.000000000000000000e+00
0.000000000000000000e+00 2.000000000000000000e+00 2.000000000000000000e+00 3.000000000000000000e+00 0.000000000000000000e+00 1.000000000000000000e+00
0.000000000000000000e+00 2.000000000000000000e+00 2.000000000000000000e+00 3.000000000000000000e+00 0.000000000000000000e+00 1.000000000000000000e+00
0.000000000000000000e+00 2.000000000000000000e+00 2.000000000000000000e+00 3.000000000000000000e+00 0.000000000000000000e+00 1.000000000000000000e+00
0.000000000000000000e+00 2.000000000000000000e+00 2.000000000000000000e+00 3.000000000000000000e+00 0.000000000000000000e+00 1.000000000000000000e+00
0.000000000000000000e+00 2.000000000000000000e+00 2.000000000000000000e+00 3.000000000000000000e+00 0.000000000000000000e+00 1.000000000000000000e+00
0.000000000000000000e+00 2.000000000000000000e+00 2.000000000000000000e+00 3.000000000000000000e+00 0.000000000000000000e+00 1.000000000000000000e+00
0.000000000000000000e+00 2.000000000000000000e+00 2.000000000000000000e+00 3.000000000000000000e+00 0.000000000000000000e+00 1.000000000000000000e+00
0.000000000000000000e+00 2.000000000000000000e+00 2.000000000000000000e+00 3.000000000000000000e+00 0.000000000000000000e+00 1.000000000000000000e+00
0.000000000000000000e+00 2.000000000000000000e+00 2.000000000000000000e+00 3.000000000000000000e+00 0.000000000000000000e+00 1.000000000000000000e+00
0.000000000000000000e+00 2.000000000000000000e+00 2.000000000000000000e+00 3.000000000000000000e+00 0.000000000000000000e+00 1.000000000000000000e+00
0.000000000000000000e+00 1.979999999999999982e+00 2.000000000000000000e+00 3.000000000000000000e+00 0.000000000000000000e+00 1.000000000000000000e+00
0.000000000000000000e+00 1.020000000000000018e+00 2.000000000000000000e+00 3.000000000000000000e+00 0.000000000000000000e+00 1.000000000000000000e+00
0.000000000000000000e+00 1.199999999999999956e+00 1.479999999999999982e+00 3.000000000000000000e+00 0.000000000000000000e+00 1.000000000000000000e+00
0.000000000000000000e+00 2.000000000000000000e+00 2.000000000000000000e+00 3.000000000000000000e+00 0.000000000000000000e+00 1.000000000000000000e+00
0.000000000000000000e+00 1.939999999999999947e+00 2.000000000000000000e+00 3.000000000000000000e+00 0.000000000000000000e+00 1.000000000000000000e+00
0.000000000000000000e+00 1.000000000000000000e+00 2.000000000000000000e+00 3.000000000000000000e+00 0.000000000000000000e+00 1.000000000000000000e+00
0.000000000000000000e+00 1.260000000000000009e+00 2.000000000000000000e+00 3.180000000000000160e+00 0.000000000000000000e+00 1.000000000000000000e+00
1.077999999999999936e+01 1.500000000000000000e+01 6.089999999999999858e+01 1.000000000000000000e+01 6.000000000000000000e+00 7.000000000000000000e+00
1.100000000000000000e+01 1.475999999999999979e+01 6.078000000000000114e+01 9.839999999999999858e+00 6.000000000000000000e+00 7.000000000000000000e+00
1.177999999999999936e+01 1.406000000000000050e+01 5.610000000000000142e+01 1.000000000000000000e+01 6.620000000000000107e+00 7.000000000000000000e+00
1.200000000000000000e+01 1.411999999999999922e+01 5.371999999999999886e+01 1.000000000000000000e+01 7.000000000000000000e+00 7.000000000000000000e+00
1.267999999999999972e+01 1.450000000000000000e+01 5.379999999999999716e+01 1.000000000000000000e+01 7.000000000000000000e+00 7.000000000000000000e+00
1.300000000000000000e+01 1.400000000000000000e+01 5.460000000000000142e+01 9.019999999999999574e+00 7.000000000000000000e+00 7.000000000000000000e+00
1.300000000000000000e+01 1.400000000000000000e+01 5.353999999999999915e+01 9.000000000000000000e+00 7.000000000000000000e+00 7.000000000000000000e+00
1.300000000000000000e+01 1.369999999999999929e+01 5.039999999999999858e+01 9.160000000000000142e+00 7.000000000000000000e+00 7.000000000000000000e+00
1.300000000000000000e+01 1.380000000000000071e+01 5.050000000000000000e+01 1.000000000000000000e+01 7.000000000000000000e+00 7.000000000000000000e+00
1.300000000000000000e+01 1.322000000000000064e+01 4.970000000000000284e+01 9.400000000000000355e+00 7.000000000000000000e+00 7.540000000000000036e+00
1.222000000000000064e+01 1.258000000000000007e+01 4.888000000000000256e+01 9.000000000000000000e+00 7.000000000000000000e+00 8.000000000000000000e+00
1.133999999999999986e+01 1.269999999999999929e+01 4.770000000000000284e+01 9.000000000000000000e+00 7.000000000000000000e+00 7.059999999999999609e+00
1.133999999999999986e+01 1.275999999999999979e+01 4.896000000000000085e+01 9.000000000000000000e+00 7.000000000000000000e+00 7.000000000000000000e+00
1.100000000000000000e+01 1.200000000000000000e+01 4.803999999999999915e+01 9.000000000000000000e+00 7.000000000000000000e+00 7.000000000000000000e+00
1.061999999999999922e+01 1.200000000000000000e+01 4.614000000000000057e+01 9.000000000000000000e+00 7.000000000000000000e+00 7.000000000000000000e+00
1.022000000000000064e+01 1.200000000000000000e+01 4.756000000000000227e+01 9.080000000000000071e+00 7.000000000000000000e+00 7.339999999999999858e+00
1.080000000000000071e+01 1.280000000000000071e+01 4.788000000000000256e+01 9.179999999999999716e+00 7.000000000000000000e+00 7.799999999999999822e+00
1.101999999999999957e+01 1.372000000000000064e+01 4.838000000000000256e+01 9.660000000000000142e+00 7.000000000000000000e+00 8.000000000000000000e+00
1.200000000000000000e+01 1.417999999999999972e+01 4.797999999999999687e+01 9.560000000000000497e+00 7.000000000000000000e+00 8.000000000000000000e+00
1.200000000000000000e+01 1.500000000000000000e+01 4.779999999999999716e+01 1.000000000000000000e+01 7.419999999999999929e+00 8.000000000000000000e+00
1.200000000000000000e+01 1.500000000000000000e+01 4.821999999999999886e+01 1.000000000000000000e+01 8.000000000000000000e+00 7.959999999999999964e+00
1.200000000000000000e+01 1.500000000000000000e+01 4.775999999999999801e+01 1.000000000000000000e+01 8.000000000000000000e+00 8.000000000000000000e+00
1.183999999999999986e+01 1.500000000000000000e+01 4.797999999999999687e+01 1.000000000000000000e+01 8.259999999999999787e+00 8.000000000000000000e+00
1.200000000000000000e+01 1.500000000000000000e+01 4.824000000000000199e+01 1.000000000000000000e+01 8.220000000000000639e+00 8.000000000000000000e+00
1.200000000000000000e+01 1.500000000000000000e+01 4.888000000000000256e+01 1.000000000000000000e+01 8.539999999999999147e+00 8.000000000000000000e+00
1.217999999999999972e+01 1.527999999999999936e+01 4.656000000000000227e+01 1.000000000000000000e+01 9.000000000000000000e+00 8.000000000000000000e+00
1.200000000000000000e+01 1.561999999999999922e+01 4.625999999999999801e+01 9.880000000000000782e+00 9.000000000000000000e+00 7.959999999999999964e+00
1.200000000000000000e+01 1.496000000000000085e+01 4.497999999999999687e+01 9.220000000000000639e+00 9.000000000000000000e+00 7.379999999999999893e+00
1.151999999999999957e+01 1.425999999999999979e+01 4.364000000000000057e+01 9.880000000000000782e+00 9.000000000000000000e+00 8.000000000000000000e+00
1.159999999999999964e+01 1.451999999999999957e+01 4.328000000000000114e+01 9.800000000000000711e+00 8.660000000000000142e+00 8.000000000000000000e+00
1.180000000000000071e+01 1.422000000000000064e+01 4.200000000000000000e+01 9.160000000000000142e+00 8.000000000000000000e+00 7.139999999999999680e+00
1.169999999999999929e+01 1.400000000000000000e+01 4.229999999999999716e+01 9.500000000000000000e+00 8.000000000000000000e+00 7.500000000000000000e+00
1.100000000000000000e+01 1.400000000000000000e+01 4.279999999999999716e+01 9.000000000000000000e+00 8.339999999999999858e+00 7.000000000000000000e+00
1.148000000000000043e+01 1.448000000000000043e+01 4.285999999999999943e+01 9.000000000000000000e+00 9.000000000000000000e+00 7.000000000000000000e+00
1.119999999999999929e+01 1.458000000000000007e+01 4.297999999999999687e+01 9.000000000000000000e+00 9.000000000000000000e+00 7.000000000000000000e+00
1.100000000000000000e+01 1.451999999999999957e+01 4.506000000000000227e+01 9.000000000000000000e+00 8.300000000000000711e+00 7.000000000000000000e+00
1.100000000000000000e+01 1.500000000000000000e+01 4.632000000000000028e+01 9.000000000000000000e+00 8.000000000000000000e+00 7.000000000000000000e+00
1.100000000000000000e+01 1.477999999999999936e+01 4.584000000000000341e+01 9.000000000000000000e+00 8.699999999999999289e+00 7.000000000000000000e+00
1.100000000000000000e+01 1.483999999999999986e+01 4.485999999999999943e+01 9.000000000000000000e+00 9.000000000000000000e+00 6.959999999999999964e+00
1.040000000000000036e+01 1.414000000000000057e+01 4.500000000000000000e+01 9.500000000000000000e+00 9.419999999999999929e+00 7.000000000000000000e+00
3.000000000000000000e+00 3.000000000000000000e+00 9.000000000000000000e+00 8.000000000000000000e+00 6.000000000000000000e+00 1.200000000000000000e+01
3.000000000000000000e+00 3.000000000000000000e+00 9.000000000000000000e+00 8.000000000000000000e+00 6.000000000000000000e+00 1.183999999999999986e+01
3.000000000000000000e+00 3.000000000000000000e+00 9.000000000000000000e+00 7.959999999999999964e+00 6.000000000000000000e+00 1.100000000000000000e+01
3.000000000000000000e+00 3.000000000000000000e+00 9.000000000000000000e+00 7.000000000000000000e+00 6.000000000000000000e+00 1.100000000000000000e+01
3.000000000000000000e+00 3.000000000000000000e+00 8.900000000000000355e+00 7.139999999999999680e+00 6.240000000000000213e+00 1.100000000000000000e+01
3.000000000000000000e+00 3.000000000000000000e+00 8.539999999999999147e+00 8.000000000000000000e+00 7.000000000000000000e+00 1.100000000000000000e+01
3.000000000000000000e+00 3.000000000000000000e+00 9.000000000000000000e+00 8.000000000000000000e+00 7.719999999999999751e+00 1.088000000000000078e+01
3.000000000000000000e+00 3.000000000000000000e+00 9.000000000000000000e+00 8.000000000000000000e+00 8.000000000000000000e+00 1.011999999999999922e+01
3.000000000000000000e+00 3.000000000000000000e+00 8.619999999999999218e+00 8.000000000000000000e+00 8.000000000000000000e+00 1.000000000000000000e+01
3.000000000000000000e+00 3.000000000000000000e+00 8.400000000000000355e+00 8.000000000000000000e+00 8.000000000000000000e+00 1.000000000000000000e+01
3.000000000000000000e+00 3.120000000000000107e+00 8.900000000000000355e+00 8.000000000000000000e+00 8.000000000000000000e+00 1.027999999999999936e+01
3.000000000000000000e+00 3.899999999999999911e+00 9.000000000000000000e+00 8.000000000000000000e+00 8.000000000000000000e+00 1.100000000000000000e+01
3.600000000000000089e+00 3.919999999999999929e+00 9.000000000000000000e+00 8.000000000000000000e+00 8.000000000000000000e+00 1.083999999999999986e+01
4.000000000000000000e+00 3.000000000000000000e+00 9.000000000000000000e+00 8.000000000000000000e+00 8.000000000000000000e+00 1.082000000000000028e+01
3.819999999999999840e+00 3.000000000000000000e+00 9.560000000000000497e+00 8.000000000000000000e+00 7.740000000000000213e+00 1.075999999999999979e+01
3.000000000000000000e+00 3.000000000000000000e+00 1.000000000000000000e+01 8.000000000000000000e+00 7.000000000000000000e+00 1.100000000000000000e+01
3.020000000000000018e+00 3.000000000000000000e+00 1.000000000000000000e+01 8.000000000000000000e+00 7.000000000000000000e+00 1.100000000000000000e+01
3.220000000000000195e+00 3.000000000000000000e+00 1.000000000000000000e+01 8.000000000000000000e+00 7.000000000000000000e+00 1.169999999999999929e+01
3.000000000000000000e+00 3.000000000000000000e+00 1.000000000000000000e+01 8.000000000000000000e+00 7.000000000000000000e+00 1.200000000000000000e+01
3.680000000000000160e+00 3.000000000000000000e+00 1.000000000000000000e+01 8.000000000000000000e+00 7.000000000000000000e+00 1.214000000000000057e+01
4.000000000000000000e+00 3.000000000000000000e+00 1.000000000000000000e+01 8.000000000000000000e+00 7.000000000000000000e+00 1.200000000000000000e+01
4.000000000000000000e+00 3.000000000000000000e+00 1.000000000000000000e+01 8.000000000000000000e+00 6.780000000000000249e+00 1.243999999999999950e+01
3.419999999999999929e+00 3.000000000000000000e+00 1.000000000000000000e+01 8.500000000000000000e+00 6.780000000000000249e+00 1.300000000000000000e+01
3.700000000000000178e+00 3.000000000000000000e+00 1.000000000000000000e+01 8.960000000000000853e+00 7.000000000000000000e+00 1.311999999999999922e+01
4.000000000000000000e+00 3.000000000000000000e+00 1.000000000000000000e+01 8.820000000000000284e+00 7.000000000000000000e+00 1.317999999999999972e+01
4.000000000000000000e+00 3.000000000000000000e+00 1.000000000000000000e+01 8.019999999999999574e+00 6.379999999999999893e+00 1.340000000000000036e+01
4.000000000000000000e+00 3.160000000000000142e+00 1.053999999999999915e+01 8.179999999999999716e+00 6.000000000000000000e+00 1.300000000000000000e+01
4.000000000000000000e+00 3.620000000000000107e+00 1.085999999999999943e+01 9.000000000000000000e+00 6.000000000000000000e+00 1.369999999999999929e+01
4.000000000000000000e+00 4.000000000000000000e+00 1.100000000000000000e+01 9.000000000000000000e+00 6.000000000000000000e+00 1.301999999999999957e+01
4.000000000000000000e+00 4.000000000000000000e+00 1.119999999999999929e+01 9.000000000000000000e+00 6.000000000000000000e+00 1.380000000000000071e+01
4.000000000000000000e+00 4.000000000000000000e+00 1.200000000000000000e+01 9.000000000000000000e+00 6.400000000000000355e+00 1.400000000000000000e+01
4.000000000000000000e+00 4.000000000000000000e+00 1.159999999999999964e+01 9.000000000000000000e+00 7.000000000000000000e+00 1.400000000000000000e+01
4.000000000000000000e+00 4.000000000000000000e+00 1.130000000000000071e+01 9.000000000000000000e+00 7.000000000000000000e+00 1.390000000000000036e+01
4.000000000000000000e+00 4.000000000000000000e+00 1.100000000000000000e+01 9.000000000000000000e+00 7.379999999999999893e+00 1.300000000000000000e+01
4.000000000000000000e+00 4.000000000000000000e+00 1.117999999999999972e+01 9.000000000000000000e+00 8.000000000000000000e+00 1.358000000000000007e+01
4.000000000000000000e+00 4.000000000000000000e+00 1.100000000000000000e+01 9.000000000000000000e+00 8.000000000000000000e+00 1.301999999999999957e+01
4.000000000000000000e+00 4.000000000000000000e+00 1.056000000000000050e+01 9.000000000000000000e+00 8.000000000000000000e+00 1.300000000000000000e+01
4.000000000000000000e+00 4.000000000000000000e+00 1.024000000000000021e+01 9.000000000000000000e+00 8.000000000000000000e+00 1.250000000000000000e+01
4.000000000000000000e+00 3.660000000000000142e+00 1.000000000000000000e+01 8.460000000000000853e+00 8.000000000000000000e+00 1.203999999999999915e+01
4.000000000000000000e+00 3.000000000000000000e+00 1.000000000000000000e+01 8.000000000000000000e+00 7.660000000000000142e+00 1.164000000000000057e+01
1.000000000000000000e+00 2.000000000000000000e+00 2.000000000000000000e+00 3.000000000000000000e+00 0.000000000000000000e+00 1.000000000000000000e+00
1.000000000000000000e+00 2.000000000000000000e+00 1.820000000000000062e+00 3.000000000000000000e+00 0.000000000000000000e+00 1.000000000000000000e+00
1.000000000000000000e+00 2.000000000000000000e+00 2.000000000000000000e+00 3.000000000000000000e+00 0.000000000000000000e+00 1.000000000000000000e+00
1.000000000000000000e+00 2.000000000000000000e+00 2.000000000000000000e+00 3.000000000000000000e+00 0.000000000000000000e+00 1.000000000000000000e+00
1.000000000000000000e+00 2.000000000000000000e+00 2.000000000000000000e+00 3.000000000000000000e+00 0.000000000000000000e+00 1.000000000000000000e+00
1.000000000000000000e+00 2.000000000000000000e+00 2.000000000000000000e+00 3.000000000000000000e+00 0.000000000000000000e+00 1.000000000000000000e+00
1.000000000000000000e+00 2.000000000000000000e+00 2.000000000000000000e+00 3.000000000000000000e+00 0.000000000000000000e+00 1.000000000000000000e+00
1.000000000000000000e+00 2.000000000000000000e+00 2.000000000000000000e+00 3.000000000000000000e+00 0.000000000000000000e+00 1.000000000000000000e+00
1.000000000000000000e+00 2.000000000000000000e+00 2.000000000000000000e+00 3.000000000000000000e+00 0.000000000000000000e+00 1.000000000000000000e+00
1.000000000000000000e+00 2.000000000000000000e+00 2.000000000000000000e+00 3.000000000000000000e+00 0.000000000000000000e+00 1.000000000000000000e+00
1.000000000000000000e+00 2.000000000000000000e+00 2.000000000000000000e+00 3.000000000000000000e+00 0.000000000000000000e+00 1.000000000000000000e+00
1.000000000000000000e+00 2.000000000000000000e+00 2.000000000000000000e+00 3.000000000000000000e+00 0.000000000000000000e+00 1.000000000000000000e+00
1.000000000000000000e+00 2.000000000000000000e+00 1.600000000000000089e+00 3.000000000000000000e+00 0.000000000000000000e+00 1.000000000000000000e+00
8.599999999999999867e-01 2.000000000000000000e+00 1.100000000000000089e+00 3.000000000000000000e+00 0.000000000000000000e+00 1.000000000000000000e+00
1.000000000000000000e+00 2.000000000000000000e+00 1.000000000000000000e+00 3.000000000000000000e+00 0.000000000000000000e+00 1.000000000000000000e+00
8.399999999999999689e-01 2.000000000000000000e+00 1.000000000000000000e+00 3.000000000000000000e+00 0.000000000000000000e+00 1.000000000000000000e+00
5.999999999999999778e-01 1.020000000000000018e+00 1.000000000000000000e+00 3.000000000000000000e+00 0.000000000000000000e+00 1.000000000000000000e+00
1.000000000000000000e+00 1.000000000000000000e+00 1.000000000000000000e+00 3.000000000000000000e+00 0.000000000000000000e+00 1.000000000000000000e+00
1.000000000000000000e+00 1.000000000000000000e+00 1.000000000000000000e+00 3.000000000000000000e+00 0.000000000000000000e+00 1.000000000000000000e+00
1.000000000000000000e+00 1.000000000000000000e+00 1.000000000000000000e+00 3.000000000000000000e+00 0.000000000000000000e+00 1.000000000000000000e+00
1.000000000000000000e+00 1.000000000000000000e+00 1.000000000000000000e+00 3.000000000000000000e+00 0.000000000000000000e+00 1.000000000000000000e+00
1.000000000000000000e+00 1.360000000000000098e+00 1.000000000000000000e+00 3.000000000000000000e+00 0.000000000000000000e+00 1.000000000000000000e+00
1.000000000000000000e+00 2.000000000000000000e+00 1.000000000000000000e+00 3.000000000000000000e+00 0.000000000000000000e+00 1.000000000000000000e+00
1.000000000000000000e+00 2.000000000000000000e+00 1.000000000000000000e+00 3.000000000000000000e+00 0.000000000000000000e+00 1.000000000000000000e+00
1.000000000000000000e+00 2.000000000000000000e+00 1.000000000000000000e+00 3.000000000000000000e+00 0.000000000000000000e+00 1.000000000000000000e+00
1.000000000000000000e+00 2.000000000000000000e+00 1.800000000000000044e+00 3.000000000000000000e+00 0.000000000000000000e+00 1.000000000000000000e+00
1.000000000000000000e+00 2.000000000000000000e+00 2.000000000000000000e+00 3.000000000000000000e+00 0.000000000000000000e+00 1.000000000000000000e+00
1.000000000000000000e+00 2.000000000000000000e+00 2.000000000000000000e+00 3.000000000000000000e+00 0.000000000000000000e+00 2.339999999999999858e+00
1.000000000000000000e+00 2.000000000000000000e+00 2.000000000000000000e+00 3.000000000000000000e+00 0.000000000000000000e+00 3.000000000000000000e+00
1.000000000000000000e+00 2.000000000000000000e+00 2.000000000000000000e+00 3.000000000000000000e+00 0.000000000000000000e+00 3.000000000000000000e+00
1.000000000000000000e+00 2.000000000000000000e+00 2.000000000000000000e+00 3.000000000000000000e+00 0.000000000000000000e+00 3.000000000000000000e+00
1.000000000000000000e+00 2.000000000000000000e+00 2.000000000000000000e+00 3.000000000000000000e+00 0.000000000000000000e+00 3.000000000000000000e+00
1.000000000000000000e+00 2.000000000000000000e+00 2.000000000000000000e+00 3.000000000000000000e+00 0.000000000000000000e+00 3.000000000000000000e+00
1.000000000000000000e+00 2.000000000000000000e+00 2.000000000000000000e+00 3.000000000000000000e+00 0.000000000000000000e+00 3.000000000000000000e+00
1.000000000000000000e+00 2.000000000000000000e+00 2.000000000000000000e+00 3.000000000000000000e+00 0.000000000000000000e+00 3.000000000000000000e+00
1.000000000000000000e+00 2.000000000000000000e+00 2.000000000000000000e+00 3.000000000000000000e+00 0.000000000000000000e+00 3.000000000000000000e+00
1.000000000000000000e+00 2.000000000000000000e+00 2.000000000000000000e+00 3.000000000000000000e+00 0.000000000000000000e+00 3.000000000000000000e+00
1.000000000000000000e+00 2.000000000000000000e+00 2.000000000000000000e+00 3.000000000000000000e+00 0.000000000000000000e+00 1.919999999999999929e+00
1.000000000000000000e+00 2.000000000000000000e+00 2.000000000000000000e+00 3.000000000000000000e+00 0.000000000000000000e+00 1.000000000000000000e+00
1.000000000000000000e+00 2.000000000000000000e+00 2.000000000000000000e+00 3.080000000000000071e+00 0.000000000000000000e+00 1.000000000000000000e+00
1.108000000000000007e+01 1.651999999999999957e+01 7.887999999999999545e+01 1.400000000000000000e+01 1.040000000000000036e+01 8.699999999999999289e+00
1.200000000000000000e+01 1.700000000000000000e+01 7.773999999999999488e+01 1.383999999999999986e+01 1.100000000000000000e+01 9.000000000000000000e+00
1.211999999999999922e+01 1.780000000000000071e+01 7.909999999999999432e+01 1.396000000000000085e+01 1.100000000000000000e+01 9.000000000000000000e+00
1.300000000000000000e+01 1.800000000000000000e+01 8.145999999999999375e+01 1.400000000000000000e+01 1.182000000000000028e+01 9.000000000000000000e+00
1.300000000000000000e+01 1.800000000000000000e+01 8.456000000000000227e+01 1.488000000000000078e+01 1.296000000000000085e+01 8.699999999999999289e+00
1.300000000000000000e+01 1.750000000000000000e+01 8.576000000000000512e+01 1.493999999999999950e+01 1.300000000000000000e+01 8.140000000000000568e+00
1.300000000000000000e+01 1.700000000000000000e+01 8.693999999999999773e+01 1.500000000000000000e+01 1.348000000000000043e+01 8.580000000000000071e+00
1.300000000000000000e+01 1.748000000000000043e+01 8.873999999999999488e+01 1.500000000000000000e+01 1.366000000000000014e+01 8.880000000000000782e+00
1.300000000000000000e+01 1.700000000000000000e+01 8.745999999999999375e+01 1.474000000000000021e+01 1.319999999999999929e+01 8.699999999999999289e+00
1.300000000000000000e+01 1.603999999999999915e+01 8.407999999999999829e+01 1.400000000000000000e+01 1.300000000000000000e+01 8.779999999999999361e+00
1.314000000000000057e+01 1.673999999999999844e+01 8.259999999999999432e+01 1.400000000000000000e+01 1.314000000000000057e+01 9.000000000000000000e+00
1.300000000000000000e+01 1.605999999999999872e+01 8.226000000000000512e+01 1.400000000000000000e+01 1.300000000000000000e+01 8.279999999999999361e+00
1.300000000000000000e+01 1.600000000000000000e+01 7.879999999999999716e+01 1.448000000000000043e+01 1.300000000000000000e+01 8.460000000000000853e+00
1.300000000000000000e+01 1.522000000000000064e+01 7.673999999999999488e+01 1.400000000000000000e+01 1.308000000000000007e+01 8.759999999999999787e+00
1.267999999999999972e+01 1.616000000000000014e+01 7.451999999999999602e+01 1.396000000000000085e+01 1.217999999999999972e+01 8.939999999999999503e+00
1.200000000000000000e+01 1.600000000000000000e+01 7.335999999999999943e+01 1.324000000000000021e+01 1.227999999999999936e+01 8.859999999999999432e+00
1.219999999999999929e+01 1.600000000000000000e+01 7.164000000000000057e+01 1.300000000000000000e+01 1.166000000000000014e+01 8.539999999999999147e+00
1.200000000000000000e+01 1.600000000000000000e+01 6.842000000000000171e+01 1.300000000000000000e+01 1.100000000000000000e+01 8.060000000000000497e+00
1.233999999999999986e+01 1.600000000000000000e+01 6.795999999999999375e+01 1.300000000000000000e+01 1.127999999999999936e+01 8.000000000000000000e+00
1.300000000000000000e+01 1.600000000000000000e+01 6.843999999999999773e+01 1.300000000000000000e+01 1.130000000000000071e+01 8.000000000000000000e+00
1.300000000000000000e+01 1.614000000000000057e+01 6.609999999999999432e+01 1.300000000000000000e+01 1.124000000000000021e+01 8.000000000000000000e+00
1.200000000000000000e+01 1.600000000000000000e+01 6.604000000000000625e+01 1.300000000000000000e+01 1.185999999999999943e+01 8.000000000000000000e+00
1.200000000000000000e+01 1.566000000000000014e+01 6.523999999999999488e+01 1.300000000000000000e+01 1.191999999999999993e+01 8.000000000000000000e+00
1.200000000000000000e+01 1.550000000000000000e+01 6.352000000000000313e+01 1.258000000000000007e+01 1.083999999999999986e+01 8.000000000000000000e+00
1.200000000000000000e+01 1.458000000000000007e+01 6.147999999999999687e+01 1.200000000000000000e+01 1.066000000000000014e+01 7.459999999999999964e+00
1.200000000000000000e+01 1.453999999999999915e+01 5.914000000000000057e+01 1.200000000000000000e+01 1.038000000000000078e+01 7.839999999999999858e+00
1.200000000000000000e+01 1.438000000000000078e+01 5.832000000000000028e+01 1.238000000000000078e+01 1.088000000000000078e+01 7.200000000000000178e+00
1.200000000000000000e+01 1.408000000000000007e+01 5.643999999999999773e+01 1.235999999999999943e+01 1.016000000000000014e+01 7.000000000000000000e+00
1.175999999999999979e+01 1.400000000000000000e+01 5.510000000000000142e+01 1.200000000000000000e+01 1.072000000000000064e+01 7.000000000000000000e+00
1.100000000000000000e+01 1.435999999999999943e+01 5.265999999999999659e+01 1.216000000000000014e+01 1.224000000000000021e+01 7.000000000000000000e+00
1.019999999999999929e+01 1.422000000000000064e+01 5.570000000000000284e+01 1.456000000000000050e+01 1.314000000000000057e+01 7.000000000000000000e+00
1.000000000000000000e+01 1.400000000000000000e+01 5.564000000000000057e+01 1.469999999999999929e+01 1.300000000000000000e+01 7.000000000000000000e+00
1.000000000000000000e+01 1.430000000000000071e+01 5.600000000000000000e+01 1.500000000000000000e+01 1.300000000000000000e+01 7.360000000000000320e+00
1.000000000000000000e+01 1.425999999999999979e+01 5.550000000000000000e+01 1.500000000000000000e+01 1.367999999999999972e+01 7.000000000000000000e+00
9.619999999999999218e+00 1.400000000000000000e+01 5.464000000000000057e+01 1.440000000000000036e+01 1.333999999999999986e+01 7.000000000000000000e+00
9.619999999999999218e+00 1.330000000000000071e+01 5.135999999999999943e+01 1.400000000000000000e+01 1.300000000000000000e+01 6.500000000000000000e+00
8.660000000000000142e+00 1.251999999999999957e+01 4.806000000000000227e+01 1.348000000000000043e+01 1.300000000000000000e+01 6.000000000000000000e+00
8.000000000000000000e+00 1.183999999999999986e+01 4.502000000000000313e+01 1.232000000000000028e+01 1.259999999999999964e+01 5.940000000000000391e+00
7.040000000000000036e+00 1.050000000000000000e+01 4.211999999999999744e+01 1.200000000000000000e+01 1.183999999999999986e+01 5.000000000000000000e+00
7.000000000000000000e+00 8.980000000000000426e+00 3.935999999999999943e+01 1.114000000000000057e+01 8.980000000000000426e+00 4.820000000000000284e+00
