2.000000000000000000e+00 2.000000000000000000e+00 2.000000000000000000e+00 1.000000000000000000e+00 0.000000000000000000e+00 1.000000000000000000e+00
2.000000000000000000e+00 2.000000000000000000e+00 2.000000000000000000e+00 1.000000000000000000e+00 0.000000000000000000e+00 1.000000000000000000e+00
2.000000000000000000e+00 2.000000000000000000e+00 2.000000000000000000e+00 1.000000000000000000e+00 0.000000000000000000e+00 1.000000000000000000e+00
2.000000000000000000e+00 2.000000000000000000e+00 2.000000000000000000e+00 1.000000000000000000e+00 0.000000000000000000e+00 1.000000000000000000e+00
2.000000000000000000e+00 2.000000000000000000e+00 2.000000000000000000e+00 1.000000000000000000e+00 0.000000000000000000e+00 1.000000000000000000e+00
2.000000000000000000e+00 2.000000000000000000e+00 2.000000000000000000e+00 1.000000000000000000e+00 0.000000000000000000e+00 1.000000000000000000e+00
2.000000000000000000e+00 2.000000000000000000e+00 2.000000000000000000e+00 1.000000000000000000e+00 0.000000000000000000e+00 1.000000000000000000e+00
2.000000000000000000e+00 2.000000000000000000e+00 2.000000000000000000e+00 1.000000000000000000e+00 0.000000000000000000e+00 1.000000000000000000e+00
2.000000000000000000e+00 2.000000000000000000e+00 2.000000000000000000e+00 1.000000000000000000e+00 0.000000000000000000e+00 1.000000000000000000e+00
2.000000000000000000e+00 2.000000000000000000e+00 2.000000000000000000e+00 1.000000000000000000e+00 0.000000000000000000e+00 1.000000000000000000e+00
2.000000000000000000e+00 2.000000000000000000e+00 2.000000000000000000e+00 1.000000000000000000e+00 0.000000000000000000e+00 1.000000000000000000e+00
2.000000000000000000e+00 2.000000000000000000e+00 2.000000000000000000e+00 1.000000000000000000e+00 0.000000000000000000e+00 1.000000000000000000e+00
2.000000000000000000e+00 2.000000000000000000e+00 2.000000000000000000e+00 1.000000000000000000e+00 0.000000000000000000e+00 1.000000000000000000e+00
2.000000000000000000e+00 2.000000000000000000e+00 2.000000000000000000e+00 1.000000000000000000e+00 0.000000000000000000e+00 1.000000000000000000e+00
2.000000000000000000e+00 2.000000000000000000e+00 2.000000000000000000e+00 1.000000000000000000e+00 0.000000000000000000e+00 1.000000000000000000e+00
2.000000000000000000e+00 2.000000000000000000e+00 2.000000000000000000e+00 1.000000000000000000e+00 0.000000000000000000e+00 1.000000000000000000e+00
2.000000000000000000e+00 2.000000000000000000e+00 2.000000000000000000e+00 1.000000000000000000e+00 0.000000000000000000e+00 1.000000000000000000e+00
2.000000000000000000e+00 2.000000000000000000e+00 2.000000000000000000e+00 1.000000000000000000e+00 0.000000000000000000e+00 1.000000000000000000e+00
2.000000000000000000e+00 2.000000000000000000e+00 2.000000000000000000e+00 1.000000000000000000e+00 0.000000000000000000e+00 1.000000000000000000e+00
2.000000000000000000e+00 2.000000000000000000e+00 2.000000000000000000e+00 1.000000000000000000e+00 0.000000000000000000e+00 1.000000000000000000e+00
2.000000000000000000e+00 2.000000000000000000e+00 2.000000000000000000e+00 1.000000000000000000e+00 0.000000000000000000e+00 1.000000000000000000e+00
2.000000000000000000e+00 2.000000000000000000e+00 2.000000000000000000e+00 1.000000000000000000e+00 0.000000000000000000e+00 1.000000000000000000e+00
2.000000000000000000e+00 2.000000000000000000e+00 2.000000000000000000e+00 1.000000000000000000e+00 0.000000000000000000e+00 1.000000000000000000e+00
2.000000000000000000e+00 2.000000000000000000e+00 2.000000000000000000e+00 1.000000000000000000e+00 0.000000000000000000e+00 1.000000000000000000e+00
2.000000000000000000e+00 2.000000000000000000e+00 2.000000000000000000e+00 1.000000000000000000e+00 0.000000000000000000e+00 1.000000000000000000e+00
2.000000000000000000e+00 2.000000000000000000e+00 2.000000000000000000e+00 1.000000000000000000e+00 0.000000000000000000e+00 1.000000000000000000e+00
2.000000000000000000e+00 2.000000000000000000e+00 2.000000000000000000e+00 1.000000000000000000e+00 0.000000000000000000e+00 1.000000000000000000e+00
2.000000000000000000e+00 2.000000000000000000e+00 2.000000000000000000e+00 1.000000000000000000e+00 0.000000000000000000e+00 1.000000000000000000e+00
2.000000000000000000e+00 2.000000000000000000e+00 2.000000000000000000e+00 1.000000000000000000e+00 0.000000000000000000e+00 1.000000000000000000e+00
2.000000000000000000e+00 2.000000000000000000e+00 2.000000000000000000e+00 1.000000000000000000e+00 0.000000000000000000e+00 1.000000000000000000e+00
2.000000000000000000e+00 2.000000000000000000e+00 2.000000000000000000e+00 1.000000000000000000e+00 0.000000000000000000e+00 1.000000000000000000e+00
2.000000000000000000e+00 2.000000000000000000e+00 2.000000000000000000e+00 1.000000000000000000e+00 0.000000000000000000e+00 1.000000000000000000e+00
2.000000000000000000e+00 2.000000000000000000e+00 2.000000000000000000e+00 1.000000000000000000e+00 0.000000000000000000e+00 1.000000000000000000e+00
2.000000000000000000e+00 2.000000000000000000e+00 2.000000000000000000e+00 1.000000000000000000e+00 0.000000000000000000e+00 1.000000000000000000e+00
2.000000000000000000e+00 2.000000000000000000e+00 2.000000000000000000e+00 1.000000000000000000e+00 0.000000000000000000e+00 1.000000000000000000e+00
2.000000000000000000e+00 2.000000000000000000e+00 2.000000000000000000e+00 1.000000000000000000e+00 0.000000000000000000e+00 1.000000000000000000e+00
2.000000000000000000e+00 2.000000000000000000e+00 2.000000000000000000e+00 1.000000000000000000e+00 0.000000000000000000e+00 1.000000000000000000e+00
2.000000000000000000e+00 2.000000000000000000e+00 2.000000000000000000e+00 1.000000000000000000e+00 0.000000000000000000e+00 1.000000000000000000e+00
2.000000000000000000e+00 2.000000000000000000e+00 2.000000000000000000e+00 1.000000000000000000e+00 0.000000000000000000e+00 1.000000000000000000e+00
2.000000000000000000e+00 2.000000000000000000e+00 2.000000000000000000e+00 1.000000000000000000e+00 0.000000000000000000e+00 1.000000000000000000e+00
3.806000000000000227e+01 1.056200000000000045e+02 2.578000000000000114e+01 3.500000000000000000e+01 1.400000000000000000e+01 3.779999999999999716e+01
3.721999999999999886e+01 1.087199999999999989e+02 2.535999999999999943e+01 3.424000000000000199e+01 1.400000000000000000e+01 3.706000000000000227e+01
3.729999999999999716e+01 1.106200000000000045e+02 2.512000000000000099e+01 3.256000000000000227e+01 1.400000000000000000e+01 3.700000000000000000e+01
3.607999999999999829e+01 1.112000000000000028e+02 2.550000000000000000e+01 3.098000000000000043e+01 1.400000000000000000e+01 3.646000000000000085e+01
3.534000000000000341e+01 1.085000000000000000e+02 2.537999999999999901e+01 2.978000000000000114e+01 1.400000000000000000e+01 3.456000000000000227e+01
3.400000000000000000e+01 1.025600000000000023e+02 2.650000000000000000e+01 2.912000000000000099e+01 1.369999999999999929e+01 3.367999999999999972e+01
3.080000000000000071e+01 1.008400000000000034e+02 2.601999999999999957e+01 2.882000000000000028e+01 1.300000000000000000e+01 3.196000000000000085e+01
2.803999999999999915e+01 9.942000000000000171e+01 2.589999999999999858e+01 2.783999999999999986e+01 1.264000000000000057e+01 2.946000000000000085e+01
2.657999999999999829e+01 9.751999999999999602e+01 2.539999999999999858e+01 2.694000000000000128e+01 1.200000000000000000e+01 2.948000000000000043e+01
2.750000000000000000e+01 9.345999999999999375e+01 2.582000000000000028e+01 2.617999999999999972e+01 1.200000000000000000e+01 3.157999999999999829e+01
2.842000000000000171e+01 9.279999999999999716e+01 2.692000000000000171e+01 2.600000000000000000e+01 1.206000000000000050e+01 3.270000000000000284e+01
2.826000000000000156e+01 8.784000000000000341e+01 2.700000000000000000e+01 2.589999999999999858e+01 1.200000000000000000e+01 3.300000000000000000e+01
2.796000000000000085e+01 8.281999999999999318e+01 2.692000000000000171e+01 2.585999999999999943e+01 1.200000000000000000e+01 3.388000000000000256e+01
2.671999999999999886e+01 7.765999999999999659e+01 2.600000000000000000e+01 2.594000000000000128e+01 1.200000000000000000e+01 3.400000000000000000e+01
2.657999999999999829e+01 7.426000000000000512e+01 2.571999999999999886e+01 2.594000000000000128e+01 1.200000000000000000e+01 3.385999999999999943e+01
2.698000000000000043e+01 7.135999999999999943e+01 2.485999999999999943e+01 2.414000000000000057e+01 1.175999999999999979e+01 3.365999999999999659e+01
2.635999999999999943e+01 6.862000000000000455e+01 2.448000000000000043e+01 2.269999999999999929e+01 1.100000000000000000e+01 3.400000000000000000e+01
2.500000000000000000e+01 5.839999999999999858e+01 2.469999999999999929e+01 2.364000000000000057e+01 1.100000000000000000e+01 3.338000000000000256e+01
2.544000000000000128e+01 5.889999999999999858e+01 2.421999999999999886e+01 2.446000000000000085e+01 1.100000000000000000e+01 3.183999999999999986e+01
2.342000000000000171e+01 6.011999999999999744e+01 2.378000000000000114e+01 2.500000000000000000e+01 1.100000000000000000e+01 2.935999999999999943e+01
2.257999999999999829e+01 5.703999999999999915e+01 2.207999999999999829e+01 2.487999999999999901e+01 1.058000000000000007e+01 2.717999999999999972e+01
2.126000000000000156e+01 5.497999999999999687e+01 2.148000000000000043e+01 2.433999999999999986e+01 1.000000000000000000e+01 2.480000000000000071e+01
2.100000000000000000e+01 5.397999999999999687e+01 2.030000000000000071e+01 2.319999999999999929e+01 9.560000000000000497e+00 2.264000000000000057e+01
2.100000000000000000e+01 5.407999999999999829e+01 1.930000000000000071e+01 2.300000000000000000e+01 9.000000000000000000e+00 2.269999999999999929e+01
2.039999999999999858e+01 5.246000000000000085e+01 1.932000000000000028e+01 2.278000000000000114e+01 9.000000000000000000e+00 2.214000000000000057e+01
2.000000000000000000e+01 5.185999999999999943e+01 1.819999999999999929e+01 2.200000000000000000e+01 8.500000000000000000e+00 2.048000000000000043e+01
1.944000000000000128e+01 5.024000000000000199e+01 1.878000000000000114e+01 2.226000000000000156e+01 8.000000000000000000e+00 1.900000000000000000e+01
1.903999999999999915e+01 4.757999999999999829e+01 1.769999999999999929e+01 2.128000000000000114e+01 8.000000000000000000e+00 1.866000000000000014e+01
1.900000000000000000e+01 4.557999999999999829e+01 1.766000000000000014e+01 1.994000000000000128e+01 8.000000000000000000e+00 1.933999999999999986e+01
1.989999999999999858e+01 4.820000000000000284e+01 1.800000000000000000e+01 1.946000000000000085e+01 8.000000000000000000e+00 1.933999999999999986e+01
2.042000000000000171e+01 4.950000000000000000e+01 1.866000000000000014e+01 1.978000000000000114e+01 8.000000000000000000e+00 2.126000000000000156e+01
2.100000000000000000e+01 5.047999999999999687e+01 1.942000000000000171e+01 2.014000000000000057e+01 8.980000000000000426e+00 2.360000000000000142e+01
2.178000000000000114e+01 5.350000000000000000e+01 2.035999999999999943e+01 2.200000000000000000e+01 9.000000000000000000e+00 2.423999999999999844e+01
2.200000000000000000e+01 5.482000000000000028e+01 2.233999999999999986e+01 2.200000000000000000e+01 9.000000000000000000e+00 2.432000000000000028e+01
2.301999999999999957e+01 5.646000000000000085e+01 2.566000000000000014e+01 2.166000000000000014e+01 9.000000000000000000e+00 2.542000000000000171e+01
2.433999999999999986e+01 5.960000000000000142e+01 2.612000000000000099e+01 2.189999999999999858e+01 9.560000000000000497e+00 2.600000000000000000e+01
2.585999999999999943e+01 6.000000000000000000e+01 2.667999999999999972e+01 2.203999999999999915e+01 1.000000000000000000e+01 2.787999999999999901e+01
2.817999999999999972e+01 6.121999999999999886e+01 2.807999999999999829e+01 2.278000000000000114e+01 1.043999999999999950e+01 2.935999999999999943e+01
2.905999999999999872e+01 6.412000000000000455e+01 2.900000000000000000e+01 2.312000000000000099e+01 1.100000000000000000e+01 3.000000000000000000e+01
2.957999999999999829e+01 6.143999999999999773e+01 2.950000000000000000e+01 2.350000000000000000e+01 1.100000000000000000e+01 3.083999999999999986e+01
3.511999999999999744e+01 1.211999999999999922e+01 8.437999999999999545e+01 1.600000000000000000e+01 1.098000000000000043e+01 2.500000000000000000e+01
3.593999999999999773e+01 1.300000000000000000e+01 8.435999999999999943e+01 1.600000000000000000e+01 1.109999999999999964e+01 2.580000000000000071e+01
3.747999999999999687e+01 1.319999999999999929e+01 8.585999999999999943e+01 1.632000000000000028e+01 1.200000000000000000e+01 2.653999999999999915e+01
3.938000000000000256e+01 1.388000000000000078e+01 8.578000000000000114e+01 1.700000000000000000e+01 1.177999999999999936e+01 2.621999999999999886e+01
3.935999999999999943e+01 1.303999999999999915e+01 8.429999999999999716e+01 1.700000000000000000e+01 1.200000000000000000e+01 2.419999999999999929e+01
3.853999999999999915e+01 1.300000000000000000e+01 8.407999999999999829e+01 1.769999999999999929e+01 1.259999999999999964e+01 2.500000000000000000e+01
3.700000000000000000e+01 1.358000000000000007e+01 8.271999999999999886e+01 1.800000000000000000e+01 1.300000000000000000e+01 2.414000000000000057e+01
3.689999999999999858e+01 1.300000000000000000e+01 8.150000000000000000e+01 1.705999999999999872e+01 1.300000000000000000e+01 2.333999999999999986e+01
3.685999999999999943e+01 1.300000000000000000e+01 7.990000000000000568e+01 1.700000000000000000e+01 1.300000000000000000e+01 2.330000000000000071e+01
3.502000000000000313e+01 1.300000000000000000e+01 7.887999999999999545e+01 1.700000000000000000e+01 1.301999999999999957e+01 2.328000000000000114e+01
3.520000000000000284e+01 1.282000000000000028e+01 8.021999999999999886e+01 1.700000000000000000e+01 1.300000000000000000e+01 2.300000000000000000e+01
3.510000000000000142e+01 1.243999999999999950e+01 7.742000000000000171e+01 1.662000000000000099e+01 1.288000000000000078e+01 2.400000000000000000e+01
3.352000000000000313e+01 1.177999999999999936e+01 7.273999999999999488e+01 1.650000000000000000e+01 1.264000000000000057e+01 2.335999999999999943e+01
3.200000000000000000e+01 1.100000000000000000e+01 7.035999999999999943e+01 1.566000000000000014e+01 1.217999999999999972e+01 2.300000000000000000e+01
3.247999999999999687e+01 1.090000000000000036e+01 6.931999999999999318e+01 1.500000000000000000e+01 1.196000000000000085e+01 2.232000000000000028e+01
3.338000000000000256e+01 1.074000000000000021e+01 6.576000000000000512e+01 1.483999999999999986e+01 1.100000000000000000e+01 2.200000000000000000e+01
3.389999999999999858e+01 1.000000000000000000e+01 6.448000000000000398e+01 1.500000000000000000e+01 1.100000000000000000e+01 2.150000000000000000e+01
3.397999999999999687e+01 1.035999999999999943e+01 6.274000000000000199e+01 1.500000000000000000e+01 1.056000000000000050e+01 2.076000000000000156e+01
3.535999999999999943e+01 1.100000000000000000e+01 6.100000000000000000e+01 1.548000000000000043e+01 1.059999999999999964e+01 2.000000000000000000e+01
3.552000000000000313e+01 1.017999999999999972e+01 6.207999999999999829e+01 1.475999999999999979e+01 1.093999999999999950e+01 1.994000000000000128e+01
3.575999999999999801e+01 1.000000000000000000e+01 5.925999999999999801e+01 1.438000000000000078e+01 1.193999999999999950e+01 1.948000000000000043e+01
3.535999999999999943e+01 9.820000000000000284e+00 6.017999999999999972e+01 1.400000000000000000e+01 1.200000000000000000e+01 1.800000000000000000e+01
3.688000000000000256e+01 1.000000000000000000e+01 6.147999999999999687e+01 1.416000000000000014e+01 1.243999999999999950e+01 1.837999999999999901e+01
3.784000000000000341e+01 1.000000000000000000e+01 6.203999999999999915e+01 1.500000000000000000e+01 1.300000000000000000e+01 1.910000000000000142e+01
3.714000000000000057e+01 1.000000000000000000e+01 6.103999999999999915e+01 1.500000000000000000e+01 1.314000000000000057e+01 2.000000000000000000e+01
3.602000000000000313e+01 1.000000000000000000e+01 6.107999999999999829e+01 1.500000000000000000e+01 1.400000000000000000e+01 1.973999999999999844e+01
3.528000000000000114e+01 9.699999999999999289e+00 6.247999999999999687e+01 1.408000000000000007e+01 1.430000000000000071e+01 1.985999999999999943e+01
3.550000000000000000e+01 9.519999999999999574e+00 6.106000000000000227e+01 1.482000000000000028e+01 1.628000000000000114e+01 2.057999999999999829e+01
3.446000000000000085e+01 9.000000000000000000e+00 6.046000000000000085e+01 1.527999999999999936e+01 1.796000000000000085e+01 2.166000000000000014e+01
3.517999999999999972e+01 9.000000000000000000e+00 5.847999999999999687e+01 1.514000000000000057e+01 1.971999999999999886e+01 2.100000000000000000e+01
3.474000000000000199e+01 9.000000000000000000e+00 5.900000000000000000e+01 1.561999999999999922e+01 1.985999999999999943e+01 2.171999999999999886e+01
3.389999999999999858e+01 9.000000000000000000e+00 6.224000000000000199e+01 1.600000000000000000e+01 2.000000000000000000e+01 2.164000000000000057e+01
3.300000000000000000e+01 9.000000000000000000e+00 6.335999999999999943e+01 1.600000000000000000e+01 2.000000000000000000e+01 2.155999999999999872e+01
3.214000000000000057e+01 9.000000000000000000e+00 6.400000000000000000e+01 1.671999999999999886e+01 2.000000000000000000e+01 2.100000000000000000e+01
3.256000000000000227e+01 9.000000000000000000e+00 6.428000000000000114e+01 1.705999999999999872e+01 2.000000000000000000e+01 2.100000000000000000e+01
3.310000000000000142e+01 9.000000000000000000e+00 6.500000000000000000e+01 1.800000000000000000e+01 2.000000000000000000e+01 2.112000000000000099e+01
3.275999999999999801e+01 9.000000000000000000e+00 6.526000000000000512e+01 1.800000000000000000e+01 1.969999999999999929e+01 2.112000000000000099e+01
3.178000000000000114e+01 9.000000000000000000e+00 6.540000000000000568e+01 1.767999999999999972e+01 1.776000000000000156e+01 2.085999999999999943e+01
3.110000000000000142e+01 9.000000000000000000e+00 6.435999999999999943e+01 1.689999999999999858e+01 1.610000000000000142e+01 2.028000000000000114e+01
3.123999999999999844e+01 9.000000000000000000e+00 6.487999999999999545e+01 1.683999999999999986e+01 1.383999999999999986e+01 2.100000000000000000e+01
3.889999999999999858e+01 1.059599999999999937e+02 1.700000000000000000e+01 1.700000000000000000e+01 8.279999999999999361e+00 1.955999999999999872e+01
3.865999999999999659e+01 1.079399999999999977e+02 1.700000000000000000e+01 1.700000000000000000e+01 8.000000000000000000e+00 1.962000000000000099e+01
3.896000000000000085e+01 1.052199999999999989e+02 1.700000000000000000e+01 1.671999999999999886e+01 8.419999999999999929e+00 1.950000000000000000e+01
3.621999999999999886e+01 1.004000000000000057e+02 1.662000000000000099e+01 1.600000000000000000e+01 8.000000000000000000e+00 1.828000000000000114e+01
3.420000000000000284e+01 9.506000000000000227e+01 1.646000000000000085e+01 1.600000000000000000e+01 8.000000000000000000e+00 1.823999999999999844e+01
3.392000000000000171e+01 9.443999999999999773e+01 1.628000000000000114e+01 1.600000000000000000e+01 8.000000000000000000e+00 1.794000000000000128e+01
3.407999999999999829e+01 9.429999999999999716e+01 1.585999999999999943e+01 1.564000000000000057e+01 7.360000000000000320e+00 1.762000000000000099e+01
3.396000000000000085e+01 9.629999999999999716e+01 1.509999999999999964e+01 1.500000000000000000e+01 7.000000000000000000e+00 1.800000000000000000e+01
3.414000000000000057e+01 9.437999999999999545e+01 1.500000000000000000e+01 1.466000000000000014e+01 7.000000000000000000e+00 1.800000000000000000e+01
3.402000000000000313e+01 9.481999999999999318e+01 1.500000000000000000e+01 1.427999999999999936e+01 7.000000000000000000e+00 1.800000000000000000e+01
3.506000000000000227e+01 9.612000000000000455e+01 1.500000000000000000e+01 1.466000000000000014e+01 6.440000000000000391e+00 1.800000000000000000e+01
3.528000000000000114e+01 9.554000000000000625e+01 1.498000000000000043e+01 1.400000000000000000e+01 6.719999999999999751e+00 1.844000000000000128e+01
3.450000000000000000e+01 9.570000000000000284e+01 1.493999999999999950e+01 1.400000000000000000e+01 7.000000000000000000e+00 1.869999999999999929e+01
3.356000000000000227e+01 9.462000000000000455e+01 1.464000000000000057e+01 1.391999999999999993e+01 7.000000000000000000e+00 1.900000000000000000e+01
3.456000000000000227e+01 9.226000000000000512e+01 1.400000000000000000e+01 1.311999999999999922e+01 6.240000000000000213e+00 1.851999999999999957e+01
3.410000000000000142e+01 8.748000000000000398e+01 1.398000000000000043e+01 1.300000000000000000e+01 6.000000000000000000e+00 1.714000000000000057e+01
3.328000000000000114e+01 8.206000000000000227e+01 1.301999999999999957e+01 1.319999999999999929e+01 6.000000000000000000e+00 1.639999999999999858e+01
3.162000000000000099e+01 7.221999999999999886e+01 1.398000000000000043e+01 1.300000000000000000e+01 6.000000000000000000e+00 1.577999999999999936e+01
3.000000000000000000e+01 6.990000000000000568e+01 1.330000000000000071e+01 1.300000000000000000e+01 6.000000000000000000e+00 1.516000000000000014e+01
3.007999999999999829e+01 7.018000000000000682e+01 1.300000000000000000e+01 1.303999999999999915e+01 6.000000000000000000e+00 1.461999999999999922e+01
2.912000000000000099e+01 7.062000000000000455e+01 1.300000000000000000e+01 1.400000000000000000e+01 6.000000000000000000e+00 1.448000000000000043e+01
2.957999999999999829e+01 7.000000000000000000e+01 1.325999999999999979e+01 1.364000000000000057e+01 6.000000000000000000e+00 1.406000000000000050e+01
3.073999999999999844e+01 7.268000000000000682e+01 1.300000000000000000e+01 1.396000000000000085e+01 6.000000000000000000e+00 1.425999999999999979e+01
3.250000000000000000e+01 7.435999999999999943e+01 1.300000000000000000e+01 1.400000000000000000e+01 6.000000000000000000e+00 1.300000000000000000e+01
3.384000000000000341e+01 7.784000000000000341e+01 1.396000000000000085e+01 1.593999999999999950e+01 6.000000000000000000e+00 1.300000000000000000e+01
3.378000000000000114e+01 7.984000000000000341e+01 1.474000000000000021e+01 1.700000000000000000e+01 6.000000000000000000e+00 1.300000000000000000e+01
3.461999999999999744e+01 8.370000000000000284e+01 1.527999999999999936e+01 1.764000000000000057e+01 6.719999999999999751e+00 1.277999999999999936e+01
3.503999999999999915e+01 8.579999999999999716e+01 1.655999999999999872e+01 1.866000000000000014e+01 7.000000000000000000e+00 1.285999999999999943e+01
3.660000000000000142e+01 8.876000000000000512e+01 1.700000000000000000e+01 1.960000000000000142e+01 7.000000000000000000e+00 1.300000000000000000e+01
3.578000000000000114e+01 8.921999999999999886e+01 1.700000000000000000e+01 1.998000000000000043e+01 7.000000000000000000e+00 1.300000000000000000e+01
3.593999999999999773e+01 8.898000000000000398e+01 1.796000000000000085e+01 1.903999999999999915e+01 7.419999999999999929e+00 1.200000000000000000e+01
3.532000000000000028e+01 8.854000000000000625e+01 1.800000000000000000e+01 1.950000000000000000e+01 7.700000000000000178e+00 1.200000000000000000e+01
3.393999999999999773e+01 8.451999999999999602e+01 1.800000000000000000e+01 1.964000000000000057e+01 7.059999999999999609e+00 1.101999999999999957e+01
3.200000000000000000e+01 8.064000000000000057e+01 1.800000000000000000e+01 1.944000000000000128e+01 7.000000000000000000e+00 1.100000000000000000e+01
2.892000000000000171e+01 7.637999999999999545e+01 1.700000000000000000e+01 1.794000000000000128e+01 7.000000000000000000e+00 1.019999999999999929e+01
2.819999999999999929e+01 7.431999999999999318e+01 1.680000000000000071e+01 1.680000000000000071e+01 7.000000000000000000e+00 1.000000000000000000e+01
2.687999999999999901e+01 6.807999999999999829e+01 1.773999999999999844e+01 1.607999999999999829e+01 7.000000000000000000e+00 9.919999999999999929e+00
2.571999999999999886e+01 6.642000000000000171e+01 1.626000000000000156e+01 1.500000000000000000e+01 7.000000000000000000e+00 9.720000000000000639e+00
2.394000000000000128e+01 6.401999999999999602e+01 1.600000000000000000e+01 1.503999999999999915e+01 7.000000000000000000e+00 9.000000000000000000e+00
2.396000000000000085e+01 6.124000000000000199e+01 1.600000000000000000e+01 1.500000000000000000e+01 7.000000000000000000e+00 9.859999999999999432e+00
2.000000000000000000e+00 2.000000000000000000e+00 1.000000000000000000e+00 1.000000000000000000e+00 0.000000000000000000e+00 1.000000000000000000e+00
2.000000000000000000e+00 2.000000000000000000e+00 1.000000000000000000e+00 1.000000000000000000e+00 0.000000000000000000e+00 1.000000000000000000e+00
2.000000000000000000e+00 2.000000000000000000e+00 1.000000000000000000e+00 1.000000000000000000e+00 0.000000000000000000e+00 1.000000000000000000e+00
2.000000000000000000e+00 2.000000000000000000e+00 1.000000000000000000e+00 1.000000000000000000e+00 0.000000000000000000e+00 1.000000000000000000e+00
2.000000000000000000e+00 2.000000000000000000e+00 1.000000000000000000e+00 1.000000000000000000e+00 0.000000000000000000e+00 1.000000000000000000e+00
2.000000000000000000e+00 2.000000000000000000e+00 1.000000000000000000e+00 1.000000000000000000e+00 0.000000000000000000e+00 1.000000000000000000e+00
2.000000000000000000e+00 2.000000000000000000e+00 1.000000000000000000e+00 1.000000000000000000e+00 0.000000000000000000e+00 1.000000000000000000e+00
2.000000000000000000e+00 2.000000000000000000e+00 1.000000000000000000e+00 1.000000000000000000e+00 0.000000000000000000e+00 1.000000000000000000e+00
2.000000000000000000e+00 2.000000000000000000e+00 1.000000000000000000e+00 1.000000000000000000e+00 0.000000000000000000e+00 1.000000000000000000e+00
2.000000000000000000e+00 2.000000000000000000e+00 1.000000000000000000e+00 1.000000000000000000e+00 0.000000000000000000e+00 1.000000000000000000e+00
2.000000000000000000e+00 2.000000000000000000e+00 1.000000000000000000e+00 1.000000000000000000e+00 0.000000000000000000e+00 1.000000000000000000e+00
2.000000000000000000e+00 2.000000000000000000e+00 1.000000000000000000e+00 1.419999999999999929e+00 0.000000000000000000e+00 1.000000000000000000e+00
2.000000000000000000e+00 2.000000000000000000e+00 1.000000000000000000e+00 2.000000000000000000e+00 0.000000000000000000e+00 1.000000000000000000e+00
2.000000000000000000e+00 2.000000000000000000e+00 1.000000000000000000e+00 2.000000000000000000e+00 0.000000000000000000e+00 1.000000000000000000e+00
3.740000000000000213e+00 2.000000000000000000e+00 1.000000000000000000e+00 2.000000000000000000e+00 0.000000000000000000e+00 1.719999999999999973e+00
4.000000000000000000e+00 2.000000000000000000e+00 1.000000000000000000e+00 2.000000000000000000e+00 0.000000000000000000e+00 2.000000000000000000e+00
4.000000000000000000e+00 2.000000000000000000e+00 1.000000000000000000e+00 2.000000000000000000e+00 0.000000000000000000e+00 2.000000000000000000e+00
4.000000000000000000e+00 2.000000000000000000e+00 1.000000000000000000e+00 2.000000000000000000e+00 0.000000000000000000e+00 2.000000000000000000e+00
4.000000000000000000e+00 2.000000000000000000e+00 1.000000000000000000e+00 2.000000000000000000e+00 0.000000000000000000e+00 2.000000000000000000e+00
4.000000000000000000e+00 2.000000000000000000e+00 1.000000000000000000e+00 2.000000000000000000e+00 0.000000000000000000e+00 2.000000000000000000e+00
4.000000000000000000e+00 2.000000000000000000e+00 1.000000000000000000e+00 2.000000000000000000e+00 0.000000000000000000e+00 2.000000000000000000e+00
4.000000000000000000e+00 2.000000000000000000e+00 1.300000000000000044e+00 1.639999999999999902e+00 0.000000000000000000e+00 2.000000000000000000e+00
4.000000000000000000e+00 2.000000000000000000e+00 1.000000000000000000e+00 1.000000000000000000e+00 0.000000000000000000e+00 2.000000000000000000e+00
4.000000000000000000e+00 2.000000000000000000e+00 1.000000000000000000e+00 1.000000000000000000e+00 0.000000000000000000e+00 1.580000000000000071e+00
2.299999999999999822e+00 2.000000000000000000e+00 1.820000000000000062e+00 1.000000000000000000e+00 0.000000000000000000e+00 1.000000000000000000e+00
2.000000000000000000e+00 2.000000000000000000e+00 2.000000000000000000e+00 1.000000000000000000e+00 0.000000000000000000e+00 1.000000000000000000e+00
2.000000000000000000e+00 2.000000000000000000e+00 2.000000000000000000e+00 1.000000000000000000e+00 0.000000000000000000e+00 1.000000000000000000e+00
2.000000000000000000e+00 2.000000000000000000e+00 1.699999999999999956e+00 1.000000000000000000e+00 0.000000000000000000e+00 1.000000000000000000e+00
2.000000000000000000e+00 2.000000000000000000e+00 1.000000000000000000e+00 1.000000000000000000e+00 0.000000000000000000e+00 1.000000000000000000e+00
2.000000000000000000e+00 2.000000000000000000e+00 1.000000000000000000e+00 1.000000000000000000e+00 0.000000000000000000e+00 1.000000000000000000e+00
2.000000000000000000e+00 2.000000000000000000e+00 1.000000000000000000e+00 1.000000000000000000e+00 0.000000000000000000e+00 1.000000000000000000e+00
2.000000000000000000e+00 2.000000000000000000e+00 1.000000000000000000e+00 1.000000000000000000e+00 0.000000000000000000e+00 1.000000000000000000e+00
2.000000000000000000e+00 2.000000000000000000e+00 1.000000000000000000e+00 1.000000000000000000e+00 0.000000000000000000e+00 1.000000000000000000e+00
2.000000000000000000e+00 2.000000000000000000e+00 1.000000000000000000e+00 1.000000000000000000e+00 0.000000000000000000e+00 1.000000000000000000e+00
2.000000000000000000e+00 2.000000000000000000e+00 1.000000000000000000e+00 1.000000000000000000e+00 0.000000000000000000e+00 1.000000000000000000e+00
2.000000000000000000e+00 2.000000000000000000e+00 1.000000000000000000e+00 1.000000000000000000e+00 0.000000000000000000e+00 1.000000000000000000e+00
2.000000000000000000e+00 2.000000000000000000e+00 1.000000000000000000e+00 1.000000000000000000e+00 0.000000000000000000e+00 1.000000000000000000e+00
2.000000000000000000e+00 2.000000000000000000e+00 1.000000000000000000e+00 1.000000000000000000e+00 0.000000000000000000e+00 1.000000000000000000e+00
2.000000000000000000e+00 2.000000000000000000e+00 1.000000000000000000e+00 1.000000000000000000e+00 0.000000000000000000e+00 1.000000000000000000e+00
2.000000000000000000e+00 2.000000000000000000e+00 1.000000000000000000e+00 1.000000000000000000e+00 0.000000000000000000e+00 1.000000000000000000e+00
5.000000000000000000e+00 2.000000000000000000e+00 1.200000000000000000e+01 2.000000000000000000e+00 0.000000000000000000e+00 1.000000000000000000e+00
5.000000000000000000e+00 2.000000000000000000e+00 1.200000000000000000e+01 2.000000000000000000e+00 0.000000000000000000e+00 1.000000000000000000e+00
5.000000000000000000e+00 2.000000000000000000e+00 1.130000000000000071e+01 2.000000000000000000e+00 0.000000000000000000e+00 1.000000000000000000e+00
5.000000000000000000e+00 2.000000000000000000e+00 1.091999999999999993e+01 1.639999999999999902e+00 0.000000000000000000e+00 1.000000000000000000e+00
5.000000000000000000e+00 2.000000000000000000e+00 1.091999999999999993e+01 1.320000000000000062e+00 0.000000000000000000e+00 1.000000000000000000e+00
4.839999999999999858e+00 2.000000000000000000e+00 1.100000000000000000e+01 1.719999999999999973e+00 0.000000000000000000e+00 1.000000000000000000e+00
4.679999999999999716e+00 2.000000000000000000e+00 1.100000000000000000e+01 1.879999999999999893e+00 0.000000000000000000e+00 1.000000000000000000e+00
5.000000000000000000e+00 2.000000000000000000e+00 1.100000000000000000e+01 2.000000000000000000e+00 0.000000000000000000e+00 1.000000000000000000e+00
5.000000000000000000e+00 2.000000000000000000e+00 1.100000000000000000e+01 2.000000000000000000e+00 0.000000000000000000e+00 1.000000000000000000e+00
5.000000000000000000e+00 2.000000000000000000e+00 1.040000000000000036e+01 2.000000000000000000e+00 0.000000000000000000e+00 1.000000000000000000e+00
5.000000000000000000e+00 2.000000000000000000e+00 1.100000000000000000e+01 1.500000000000000000e+00 0.000000000000000000e+00 1.000000000000000000e+00
5.000000000000000000e+00 2.000000000000000000e+00 1.008000000000000007e+01 1.979999999999999982e+00 0.000000000000000000e+00 1.000000000000000000e+00
4.459999999999999964e+00 2.000000000000000000e+00 1.100000000000000000e+01 2.000000000000000000e+00 0.000000000000000000e+00 1.000000000000000000e+00
5.000000000000000000e+00 2.000000000000000000e+00 1.100000000000000000e+01 2.000000000000000000e+00 0.000000000000000000e+00 1.000000000000000000e+00
5.000000000000000000e+00 2.000000000000000000e+00 1.161999999999999922e+01 2.000000000000000000e+00 0.000000000000000000e+00 1.000000000000000000e+00
5.339999999999999858e+00 2.000000000000000000e+00 1.100000000000000000e+01 2.000000000000000000e+00 0.000000000000000000e+00 1.000000000000000000e+00
5.299999999999999822e+00 2.000000000000000000e+00 1.100000000000000000e+01 2.000000000000000000e+00 0.000000000000000000e+00 1.000000000000000000e+00
5.000000000000000000e+00 2.000000000000000000e+00 1.100000000000000000e+01 2.000000000000000000e+00 0.000000000000000000e+00 1.000000000000000000e+00
5.000000000000000000e+00 2.000000000000000000e+00 1.100000000000000000e+01 2.000000000000000000e+00 0.000000000000000000e+00 1.000000000000000000e+00
5.000000000000000000e+00 2.000000000000000000e+00 1.100000000000000000e+01 2.000000000000000000e+00 0.000000000000000000e+00 1.000000000000000000e+00
5.000000000000000000e+00 2.000000000000000000e+00 1.074000000000000021e+01 2.000000000000000000e+00 0.000000000000000000e+00 1.000000000000000000e+00
5.000000000000000000e+00 2.000000000000000000e+00 1.100000000000000000e+01 2.000000000000000000e+00 0.000000000000000000e+00 1.000000000000000000e+00
5.000000000000000000e+00 2.000000000000000000e+00 1.075999999999999979e+01 2.000000000000000000e+00 0.000000000000000000e+00 1.000000000000000000e+00
4.820000000000000284e+00 2.000000000000000000e+00 1.000000000000000000e+01 1.939999999999999947e+00 0.000000000000000000e+00 1.000000000000000000e+00
5.000000000000000000e+00 2.000000000000000000e+00 9.400000000000000355e+00 2.000000000000000000e+00 0.000000000000000000e+00 1.000000000000000000e+00
4.519999999999999574e+00 2.000000000000000000e+00 9.500000000000000000e+00 1.479999999999999982e+00 0.000000000000000000e+00 1.000000000000000000e+00
4.000000000000000000e+00 2.000000000000000000e+00 1.000000000000000000e+01 1.000000000000000000e+00 0.000000000000000000e+00 1.000000000000000000e+00
4.000000000000000000e+00 2.000000000000000000e+00 1.000000000000000000e+01 1.000000000000000000e+00 0.000000000000000000e+00 1.000000000000000000e+00
4.480000000000000426e+00 2.000000000000000000e+00 1.000000000000000000e+01 1.000000000000000000e+00 0.000000000000000000e+00 1.000000000000000000e+00
5.000000000000000000e+00 2.000000000000000000e+00 1.000000000000000000e+01 1.000000000000000000e+00 0.000000000000000000e+00 1.000000000000000000e+00
4.160000000000000142e+00 2.000000000000000000e+00 1.000000000000000000e+01 1.000000000000000000e+00 0.000000000000000000e+00 1.000000000000000000e+00
5.000000000000000000e+00 2.000000000000000000e+00 1.000000000000000000e+01 1.000000000000000000e+00 0.000000000000000000e+00 1.000000000000000000e+00
5.000000000000000000e+00 2.000000000000000000e+00 1.000000000000000000e+01 1.000000000000000000e+00 0.000000000000000000e+00 1.000000000000000000e+00
5.000000000000000000e+00 2.000000000000000000e+00 1.000000000000000000e+01 1.000000000000000000e+00 0.000000000000000000e+00 1.000000000000000000e+00
5.000000000000000000e+00 2.000000000000000000e+00 1.041999999999999993e+01 1.000000000000000000e+00 0.000000000000000000e+00 1.000000000000000000e+00
5.000000000000000000e+00 2.000000000000000000e+00 1.085999999999999943e+01 1.000000000000000000e+00 0.000000000000000000e+00 1.000000000000000000e+00
5.000000000000000000e+00 2.000000000000000000e+00 1.006000000000000050e+01 1.000000000000000000e+00 0.000000000000000000e+00 1.000000000000000000e+00
5.000000000000000000e+00 2.000000000000000000e+00 1.058000000000000007e+01 1.000000000000000000e+00 0.000000000000000000e+00 1.000000000000000000e+00
5.000000000000000000e+00 2.000000000000000000e+00 1.000000000000000000e+01 1.000000000000000000e+00 0.000000000000000000e+00 1.000000000000000000e+00
5.000000000000000000e+00 2.000000000000000000e+00 1.000000000000000000e+01 1.100000000000000089e+00 0.000000000000000000e+00 1.000000000000000000e+00
4.000000000000000000e+00 2.000000000000000000e+00 1.100000000000000000e+01 2.000000000000000000e+00 0.000000000000000000e+00 1.000000000000000000e+00
4.000000000000000000e+00 2.000000000000000000e+00 1.100000000000000000e+01 2.000000000000000000e+00 0.000000000000000000e+00 1.000000000000000000e+00
4.719999999999999751e+00 2.000000000000000000e+00 1.100000000000000000e+01 2.000000000000000000e+00 0.000000000000000000e+00 1.000000000000000000e+00
5.000000000000000000e+00 2.000000000000000000e+00 1.100000000000000000e+01 2.000000000000000000e+00 0.000000000000000000e+00 1.000000000000000000e+00
5.000000000000000000e+00 2.000000000000000000e+00 1.148000000000000043e+01 1.100000000000000089e+00 0.000000000000000000e+00 1.000000000000000000e+00
5.000000000000000000e+00 2.000000000000000000e+00 1.150000000000000000e+01 1.719999999999999973e+00 0.000000000000000000e+00 1.000000000000000000e+00
5.000000000000000000e+00 2.000000000000000000e+00 1.200000000000000000e+01 1.860000000000000098e+00 0.000000000000000000e+00 1.000000000000000000e+00
5.000000000000000000e+00 2.000000000000000000e+00 1.200000000000000000e+01 2.000000000000000000e+00 0.000000000000000000e+00 1.000000000000000000e+00
4.379999999999999893e+00 2.000000000000000000e+00 1.200000000000000000e+01 2.000000000000000000e+00 0.000000000000000000e+00 1.000000000000000000e+00
4.000000000000000000e+00 2.000000000000000000e+00 1.200000000000000000e+01 1.100000000000000089e+00 0.000000000000000000e+00 1.000000000000000000e+00
4.080000000000000071e+00 2.000000000000000000e+00 1.200000000000000000e+01 1.080000000000000071e+00 0.000000000000000000e+00 1.000000000000000000e+00
4.980000000000000426e+00 2.000000000000000000e+00 1.200000000000000000e+01 1.520000000000000018e+00 0.000000000000000000e+00 1.000000000000000000e+00
4.000000000000000000e+00 2.000000000000000000e+00 1.283999999999999986e+01 1.000000000000000000e+00 0.000000000000000000e+00 1.000000000000000000e+00
4.000000000000000000e+00 2.000000000000000000e+00 1.250000000000000000e+01 1.000000000000000000e+00 0.000000000000000000e+00 1.000000000000000000e+00
4.000000000000000000e+00 2.000000000000000000e+00 1.300000000000000000e+01 1.000000000000000000e+00 0.000000000000000000e+00 1.000000000000000000e+00
4.000000000000000000e+00 2.000000000000000000e+00 1.300000000000000000e+01 1.000000000000000000e+00 0.000000000000000000e+00 1.000000000000000000e+00
4.000000000000000000e+00 2.000000000000000000e+00 1.296000000000000085e+01 1.000000000000000000e+00 0.000000000000000000e+00 1.000000000000000000e+00
4.000000000000000000e+00 2.000000000000000000e+00 1.288000000000000078e+01 1.000000000000000000e+00 0.000000000000000000e+00 1.000000000000000000e+00
4.000000000000000000e+00 2.000000000000000000e+00 1.235999999999999943e+01 1.000000000000000000e+00 0.000000000000000000e+00 1.000000000000000000e+00
4.000000000000000000e+00 2.000000000000000000e+00 1.250000000000000000e+01 1.000000000000000000e+00 0.000000000000000000e+00 1.000000000000000000e+00
4.000000000000000000e+00 2.000000000000000000e+00 1.300000000000000000e+01 1.000000000000000000e+00 0.000000000000000000e+00 1.000000000000000000e+00
4.000000000000000000e+00 2.000000000000000000e+00 1.309999999999999964e+01 1.000000000000000000e+00 0.000000000000000000e+00 1.000000000000000000e+00
4.219999999999999751e+00 2.000000000000000000e+00 1.283999999999999986e+01 1.000000000000000000e+00 0.000000000000000000e+00 1.000000000000000000e+00
5.000000000000000000e+00 2.000000000000000000e+00 1.300000000000000000e+01 1.000000000000000000e+00 0.000000000000000000e+00 1.000000000000000000e+00
5.000000000000000000e+00 2.000000000000000000e+00 1.216000000000000014e+01 1.000000000000000000e+00 0.000000000000000000e+00 1.000000000000000000e+00
5.000000000000000000e+00 2.000000000000000000e+00 1.241999999999999993e+01 1.000000000000000000e+00 0.000000000000000000e+00 1.000000000000000000e+00
5.000000000000000000e+00 2.000000000000000000e+00 1.327999999999999936e+01 1.000000000000000000e+00 0.000000000000000000e+00 1.000000000000000000e+00
5.000000000000000000e+00 2.000000000000000000e+00 1.300000000000000000e+01 1.000000000000000000e+00 0.000000000000000000e+00 1.000000000000000000e+00
5.000000000000000000e+00 2.000000000000000000e+00 1.300000000000000000e+01 1.419999999999999929e+00 0.000000000000000000e+00 1.000000000000000000e+00
5.000000000000000000e+00 2.000000000000000000e+00 1.300000000000000000e+01 1.639999999999999902e+00 0.000000000000000000e+00 1.000000000000000000e+00
5.000000000000000000e+00 2.000000000000000000e+00 1.300000000000000000e+01 1.000000000000000000e+00 0.000000000000000000e+00 1.000000000000000000e+00
5.000000000000000000e+00 2.000000000000000000e+00 1.258000000000000007e+01 1.580000000000000071e+00 0.000000000000000000e+00 1.000000000000000000e+00
5.000000000000000000e+00 2.000000000000000000e+00 1.300000000000000000e+01 1.320000000000000062e+00 0.000000000000000000e+00 1.000000000000000000e+00
5.000000000000000000e+00 2.000000000000000000e+00 1.300000000000000000e+01 1.659999999999999920e+00 0.000000000000000000e+00 1.000000000000000000e+00
5.000000000000000000e+00 2.000000000000000000e+00 1.290000000000000036e+01 1.139999999999999902e+00 0.000000000000000000e+00 1.000000000000000000e+00
5.000000000000000000e+00 2.000000000000000000e+00 1.258000000000000007e+01 1.020000000000000018e+00 0.000000000000000000e+00 1.000000000000000000e+00
4.179999999999999716e+00 2.000000000000000000e+00 1.177999999999999936e+01 1.000000000000000000e+00 0.000000000000000000e+00 1.000000000000000000e+00
4.160000000000000142e+00 2.000000000000000000e+00 1.200000000000000000e+01 1.159999999999999920e+00 0.000000000000000000e+00 1.000000000000000000e+00
4.080000000000000071e+00 2.000000000000000000e+00 1.200000000000000000e+01 1.580000000000000071e+00 0.000000000000000000e+00 1.000000000000000000e+00
4.160000000000000142e+00 2.000000000000000000e+00 1.164000000000000057e+01 1.139999999999999902e+00 0.000000000000000000e+00 1.000000000000000000e+00
2.200000000000000000e+01 5.146000000000000085e+01 1.898000000000000043e+01 1.500000000000000000e+01 8.000000000000000000e+00 1.800000000000000000e+01
2.176000000000000156e+01 5.071999999999999886e+01 1.900000000000000000e+01 1.496000000000000085e+01 8.000000000000000000e+00 1.737999999999999901e+01
2.151999999999999957e+01 5.288000000000000256e+01 1.900000000000000000e+01 1.493999999999999950e+01 8.000000000000000000e+00 1.782000000000000028e+01
2.139999999999999858e+01 5.347999999999999687e+01 2.014000000000000057e+01 1.500000000000000000e+01 8.000000000000000000e+00 1.810000000000000142e+01
2.205999999999999872e+01 5.471999999999999886e+01 2.194000000000000128e+01 1.493999999999999950e+01 8.000000000000000000e+00 1.839999999999999858e+01
2.080000000000000071e+01 5.257999999999999829e+01 2.200000000000000000e+01 1.453999999999999915e+01 7.799999999999999822e+00 1.862000000000000099e+01
2.078000000000000114e+01 5.178000000000000114e+01 2.200000000000000000e+01 1.400000000000000000e+01 7.000000000000000000e+00 1.800000000000000000e+01
2.200000000000000000e+01 5.250000000000000000e+01 2.230000000000000071e+01 1.461999999999999922e+01 7.000000000000000000e+00 1.830000000000000071e+01
2.176000000000000156e+01 5.457999999999999829e+01 2.296000000000000085e+01 1.485999999999999943e+01 7.000000000000000000e+00 1.800000000000000000e+01
2.100000000000000000e+01 5.271999999999999886e+01 2.300000000000000000e+01 1.524000000000000021e+01 7.000000000000000000e+00 1.733999999999999986e+01
2.150000000000000000e+01 5.288000000000000256e+01 2.305999999999999872e+01 1.503999999999999915e+01 7.000000000000000000e+00 1.823999999999999844e+01
2.178000000000000114e+01 5.514000000000000057e+01 2.339999999999999858e+01 1.500000000000000000e+01 7.000000000000000000e+00 1.889999999999999858e+01
2.200000000000000000e+01 5.488000000000000256e+01 2.300000000000000000e+01 1.500000000000000000e+01 7.000000000000000000e+00 1.817999999999999972e+01
2.187999999999999901e+01 5.617999999999999972e+01 2.296000000000000085e+01 1.500000000000000000e+01 7.599999999999999645e+00 1.800000000000000000e+01
2.169999999999999929e+01 5.625999999999999801e+01 2.148000000000000043e+01 1.500000000000000000e+01 8.000000000000000000e+00 1.800000000000000000e+01
2.135999999999999943e+01 5.774000000000000199e+01 2.130000000000000071e+01 1.500000000000000000e+01 8.000000000000000000e+00 1.744000000000000128e+01
2.066000000000000014e+01 6.102000000000000313e+01 2.100000000000000000e+01 1.500000000000000000e+01 8.000000000000000000e+00 1.742000000000000171e+01
1.901999999999999957e+01 6.020000000000000284e+01 2.123999999999999844e+01 1.500000000000000000e+01 8.000000000000000000e+00 1.705999999999999872e+01
1.996000000000000085e+01 6.043999999999999773e+01 2.100000000000000000e+01 1.500000000000000000e+01 8.000000000000000000e+00 1.700000000000000000e+01
2.010000000000000142e+01 6.134000000000000341e+01 2.101999999999999957e+01 1.500000000000000000e+01 8.000000000000000000e+00 1.719999999999999929e+01
2.005999999999999872e+01 6.220000000000000284e+01 2.110000000000000142e+01 1.500000000000000000e+01 8.000000000000000000e+00 1.616000000000000014e+01
2.000000000000000000e+01 6.038000000000000256e+01 2.100000000000000000e+01 1.414000000000000057e+01 8.000000000000000000e+00 1.600000000000000000e+01
1.976000000000000156e+01 6.028000000000000114e+01 2.100000000000000000e+01 1.400000000000000000e+01 7.200000000000000178e+00 1.607999999999999829e+01
1.930000000000000071e+01 5.988000000000000256e+01 2.023999999999999844e+01 1.400000000000000000e+01 7.320000000000000284e+00 1.590000000000000036e+01
1.907999999999999829e+01 5.797999999999999687e+01 2.001999999999999957e+01 1.400000000000000000e+01 7.099999999999999645e+00 1.500000000000000000e+01
1.848000000000000043e+01 5.610000000000000142e+01 2.000000000000000000e+01 1.400000000000000000e+01 7.000000000000000000e+00 1.535999999999999943e+01
1.900000000000000000e+01 5.306000000000000227e+01 2.021999999999999886e+01 1.408000000000000007e+01 7.000000000000000000e+00 1.500000000000000000e+01
1.860000000000000142e+01 5.346000000000000085e+01 2.000000000000000000e+01 1.400000000000000000e+01 7.000000000000000000e+00 1.548000000000000043e+01
1.832000000000000028e+01 5.493999999999999773e+01 2.000000000000000000e+01 1.400000000000000000e+01 7.000000000000000000e+00 1.580000000000000071e+01
1.914000000000000057e+01 5.597999999999999687e+01 2.039999999999999858e+01 1.424000000000000021e+01 7.000000000000000000e+00 1.593999999999999950e+01
1.971999999999999886e+01 5.642000000000000171e+01 2.182000000000000028e+01 1.680000000000000071e+01 7.879999999999999893e+00 1.678000000000000114e+01
2.100000000000000000e+01 6.047999999999999687e+01 2.312000000000000099e+01 1.737999999999999901e+01 8.019999999999999574e+00 1.800000000000000000e+01
2.100000000000000000e+01 6.082000000000000028e+01 2.448000000000000043e+01 1.800000000000000000e+01 8.820000000000000284e+00 1.800000000000000000e+01
2.148000000000000043e+01 6.032000000000000028e+01 2.512000000000000099e+01 1.855999999999999872e+01 8.039999999999999147e+00 1.800000000000000000e+01
2.189999999999999858e+01 6.156000000000000227e+01 2.600000000000000000e+01 1.830000000000000071e+01 8.759999999999999787e+00 1.800000000000000000e+01
2.400000000000000000e+01 6.476000000000000512e+01 2.692000000000000171e+01 1.805999999999999872e+01 8.919999999999999929e+00 1.800000000000000000e+01
2.394000000000000128e+01 6.559999999999999432e+01 2.800000000000000000e+01 1.800000000000000000e+01 8.839999999999999858e+00 1.800000000000000000e+01
2.400000000000000000e+01 6.601999999999999602e+01 2.800000000000000000e+01 1.810000000000000142e+01 9.000000000000000000e+00 1.800000000000000000e+01
2.400000000000000000e+01 6.648000000000000398e+01 2.800000000000000000e+01 1.900000000000000000e+01 9.000000000000000000e+00 1.800000000000000000e+01
2.317999999999999972e+01 6.537999999999999545e+01 2.866000000000000014e+01 1.828000000000000114e+01 9.000000000000000000e+00 1.723999999999999844e+01
1.796000000000000085e+01 4.415999999999999659e+01 8.000000000000000000e+00 1.200000000000000000e+01 3.000000000000000000e+00 7.000000000000000000e+00
1.755999999999999872e+01 4.414000000000000057e+01 8.919999999999999929e+00 1.200000000000000000e+01 3.000000000000000000e+00 7.059999999999999609e+00
1.800000000000000000e+01 4.406000000000000227e+01 9.000000000000000000e+00 1.200000000000000000e+01 3.759999999999999787e+00 8.000000000000000000e+00
1.814000000000000057e+01 4.552000000000000313e+01 9.000000000000000000e+00 1.200000000000000000e+01 4.000000000000000000e+00 8.000000000000000000e+00
1.896000000000000085e+01 4.715999999999999659e+01 9.000000000000000000e+00 1.200000000000000000e+01 4.000000000000000000e+00 7.980000000000000426e+00
1.900000000000000000e+01 4.539999999999999858e+01 9.000000000000000000e+00 1.125999999999999979e+01 4.000000000000000000e+00 7.860000000000000320e+00
1.900000000000000000e+01 4.350000000000000000e+01 9.000000000000000000e+00 1.191999999999999993e+01 4.000000000000000000e+00 7.440000000000000391e+00
1.900000000000000000e+01 4.285999999999999943e+01 8.960000000000000853e+00 1.100000000000000000e+01 4.000000000000000000e+00 7.000000000000000000e+00
1.848000000000000043e+01 4.303999999999999915e+01 8.080000000000000071e+00 1.100000000000000000e+01 4.000000000000000000e+00 7.000000000000000000e+00
1.757999999999999829e+01 4.074000000000000199e+01 8.000000000000000000e+00 1.008000000000000007e+01 4.000000000000000000e+00 7.000000000000000000e+00
1.700000000000000000e+01 4.043999999999999773e+01 8.019999999999999574e+00 1.000000000000000000e+01 3.680000000000000160e+00 7.000000000000000000e+00
1.700000000000000000e+01 3.925999999999999801e+01 8.000000000000000000e+00 1.000000000000000000e+01 3.000000000000000000e+00 6.700000000000000178e+00
1.575999999999999979e+01 3.867999999999999972e+01 7.919999999999999929e+00 9.980000000000000426e+00 3.000000000000000000e+00 6.040000000000000036e+00
1.461999999999999922e+01 3.774000000000000199e+01 8.000000000000000000e+00 1.000000000000000000e+01 2.080000000000000071e+00 6.160000000000000142e+00
1.233999999999999986e+01 3.606000000000000227e+01 7.580000000000000071e+00 1.000000000000000000e+01 2.000000000000000000e+00 6.000000000000000000e+00
1.280000000000000071e+01 3.538000000000000256e+01 7.080000000000000071e+00 1.000000000000000000e+01 2.000000000000000000e+00 6.000000000000000000e+00
1.300000000000000000e+01 3.400000000000000000e+01 7.000000000000000000e+00 1.000000000000000000e+01 2.000000000000000000e+00 6.000000000000000000e+00
1.300000000000000000e+01 3.488000000000000256e+01 7.200000000000000178e+00 1.000000000000000000e+01 2.000000000000000000e+00 6.179999999999999716e+00
1.300000000000000000e+01 3.347999999999999687e+01 7.700000000000000178e+00 1.000000000000000000e+01 2.040000000000000036e+00 6.000000000000000000e+00
1.300000000000000000e+01 3.424000000000000199e+01 7.580000000000000071e+00 1.000000000000000000e+01 3.000000000000000000e+00 6.879999999999999893e+00
1.264000000000000057e+01 3.325999999999999801e+01 7.000000000000000000e+00 1.000000000000000000e+01 3.000000000000000000e+00 6.919999999999999929e+00
1.300000000000000000e+01 3.550000000000000000e+01 7.120000000000000107e+00 1.000000000000000000e+01 3.000000000000000000e+00 7.000000000000000000e+00
1.338000000000000078e+01 3.774000000000000199e+01 7.000000000000000000e+00 1.006000000000000050e+01 3.000000000000000000e+00 7.000000000000000000e+00
1.400000000000000000e+01 3.817999999999999972e+01 7.000000000000000000e+00 1.051999999999999957e+01 3.000000000000000000e+00 7.000000000000000000e+00
1.400000000000000000e+01 3.911999999999999744e+01 7.000000000000000000e+00 1.093999999999999950e+01 3.000000000000000000e+00 7.000000000000000000e+00
1.400000000000000000e+01 4.103999999999999915e+01 7.000000000000000000e+00 1.035999999999999943e+01 3.000000000000000000e+00 7.000000000000000000e+00
1.301999999999999957e+01 4.150000000000000000e+01 7.000000000000000000e+00 1.000000000000000000e+01 3.000000000000000000e+00 7.000000000000000000e+00
1.341999999999999993e+01 4.129999999999999716e+01 7.000000000000000000e+00 1.000000000000000000e+01 3.000000000000000000e+00 7.000000000000000000e+00
1.343999999999999950e+01 4.193999999999999773e+01 7.000000000000000000e+00 1.000000000000000000e+01 2.959999999999999964e+00 7.000000000000000000e+00
1.300000000000000000e+01 4.121999999999999886e+01 7.000000000000000000e+00 1.000000000000000000e+01 2.859999999999999876e+00 6.379999999999999893e+00
1.300000000000000000e+01 4.146000000000000085e+01 7.000000000000000000e+00 1.000000000000000000e+01 3.000000000000000000e+00 6.000000000000000000e+00
1.277999999999999936e+01 4.092000000000000171e+01 7.000000000000000000e+00 1.022000000000000064e+01 3.000000000000000000e+00 6.000000000000000000e+00
1.346000000000000085e+01 3.982000000000000028e+01 7.000000000000000000e+00 1.001999999999999957e+01 3.000000000000000000e+00 6.000000000000000000e+00
1.383999999999999986e+01 4.007999999999999829e+01 7.200000000000000178e+00 1.050000000000000000e+01 2.779999999999999805e+00 6.000000000000000000e+00
1.353999999999999915e+01 3.847999999999999687e+01 7.440000000000000391e+00 1.174000000000000021e+01 3.339999999999999858e+00 6.000000000000000000e+00
1.400000000000000000e+01 3.757999999999999829e+01 8.000000000000000000e+00 1.200000000000000000e+01 4.000000000000000000e+00 6.000000000000000000e+00
1.500000000000000000e+01 3.867999999999999972e+01 8.000000000000000000e+00 1.224000000000000021e+01 4.000000000000000000e+00 6.000000000000000000e+00
1.600000000000000000e+01 3.974000000000000199e+01 8.240000000000000213e+00 1.201999999999999957e+01 4.000000000000000000e+00 6.480000000000000426e+00
1.621999999999999886e+01 4.043999999999999773e+01 9.000000000000000000e+00 1.296000000000000085e+01 4.179999999999999716e+00 6.379999999999999893e+00
1.700000000000000000e+01 4.085999999999999943e+01 9.000000000000000000e+00 1.300000000000000000e+01 4.059999999999999609e+00 7.000000000000000000e+00
1.716000000000000014e+01 4.479999999999999716e+01 9.000000000000000000e+00 1.100000000000000000e+01 5.000000000000000000e+00 8.000000000000000000e+00
1.800000000000000000e+01 4.556000000000000227e+01 9.000000000000000000e+00 1.159999999999999964e+01 5.000000000000000000e+00 8.300000000000000711e+00
1.800000000000000000e+01 4.750000000000000000e+01 9.000000000000000000e+00 1.214000000000000057e+01 5.000000000000000000e+00 9.000000000000000000e+00
1.800000000000000000e+01 4.911999999999999744e+01 9.140000000000000568e+00 1.300000000000000000e+01 5.000000000000000000e+00 9.000000000000000000e+00
1.830000000000000071e+01 4.967999999999999972e+01 9.000000000000000000e+00 1.203999999999999915e+01 5.000000000000000000e+00 9.000000000000000000e+00
1.871999999999999886e+01 4.900000000000000000e+01 9.220000000000000639e+00 1.200000000000000000e+01 5.000000000000000000e+00 9.000000000000000000e+00
1.894000000000000128e+01 4.947999999999999687e+01 9.800000000000000711e+00 1.200000000000000000e+01 5.000000000000000000e+00 9.000000000000000000e+00
1.919999999999999929e+01 5.221999999999999886e+01 1.000000000000000000e+01 1.300000000000000000e+01 5.519999999999999574e+00 9.000000000000000000e+00
1.950000000000000000e+01 5.403999999999999915e+01 1.000000000000000000e+01 1.300000000000000000e+01 5.379999999999999893e+00 9.000000000000000000e+00
1.976000000000000156e+01 5.470000000000000284e+01 1.000000000000000000e+01 1.300000000000000000e+01 5.000000000000000000e+00 9.000000000000000000e+00
2.037999999999999901e+01 5.456000000000000227e+01 1.000000000000000000e+01 1.300000000000000000e+01 5.679999999999999716e+00 9.019999999999999574e+00
2.000000000000000000e+01 5.429999999999999716e+01 9.599999999999999645e+00 1.253999999999999915e+01 5.000000000000000000e+00 9.259999999999999787e+00
2.050000000000000000e+01 5.500000000000000000e+01 9.199999999999999289e+00 1.227999999999999936e+01 5.000000000000000000e+00 9.000000000000000000e+00
2.007999999999999829e+01 5.564000000000000057e+01 1.000000000000000000e+01 1.200000000000000000e+01 5.000000000000000000e+00 9.039999999999999147e+00
2.033999999999999986e+01 5.538000000000000256e+01 1.050000000000000000e+01 1.267999999999999972e+01 5.000000000000000000e+00 9.839999999999999858e+00
2.051999999999999957e+01 5.696000000000000085e+01 1.090000000000000036e+01 1.300000000000000000e+01 5.000000000000000000e+00 9.019999999999999574e+00
2.076000000000000156e+01 5.679999999999999716e+01 1.100000000000000000e+01 1.350000000000000000e+01 5.000000000000000000e+00 9.000000000000000000e+00
2.100000000000000000e+01 5.500000000000000000e+01 1.066000000000000014e+01 1.300000000000000000e+01 5.000000000000000000e+00 9.000000000000000000e+00
2.050000000000000000e+01 5.264000000000000057e+01 1.038000000000000078e+01 1.317999999999999972e+01 5.000000000000000000e+00 8.720000000000000639e+00
2.107999999999999829e+01 5.425999999999999801e+01 1.048000000000000043e+01 1.332000000000000028e+01 5.000000000000000000e+00 8.599999999999999645e+00
2.010000000000000142e+01 5.497999999999999687e+01 1.100000000000000000e+01 1.300000000000000000e+01 4.860000000000000320e+00 8.080000000000000071e+00
1.998000000000000043e+01 5.660000000000000142e+01 1.100000000000000000e+01 1.300000000000000000e+01 4.440000000000000391e+00 8.000000000000000000e+00
1.900000000000000000e+01 5.474000000000000199e+01 1.100000000000000000e+01 1.300000000000000000e+01 4.000000000000000000e+00 8.000000000000000000e+00
1.900000000000000000e+01 5.288000000000000256e+01 1.069999999999999929e+01 1.300000000000000000e+01 4.000000000000000000e+00 8.000000000000000000e+00
1.900000000000000000e+01 5.243999999999999773e+01 9.740000000000000213e+00 1.283999999999999986e+01 4.000000000000000000e+00 8.000000000000000000e+00
1.812000000000000099e+01 5.225999999999999801e+01 9.980000000000000426e+00 1.200000000000000000e+01 4.000000000000000000e+00 8.939999999999999503e+00
1.832000000000000028e+01 5.164000000000000057e+01 9.160000000000000142e+00 1.219999999999999929e+01 4.000000000000000000e+00 9.000000000000000000e+00
1.832000000000000028e+01 5.082000000000000028e+01 9.300000000000000711e+00 1.233999999999999986e+01 3.939999999999999947e+00 8.599999999999999645e+00
1.800000000000000000e+01 5.124000000000000199e+01 9.740000000000000213e+00 1.288000000000000078e+01 3.939999999999999947e+00 8.259999999999999787e+00
1.732000000000000028e+01 4.946000000000000085e+01 9.019999999999999574e+00 1.238000000000000078e+01 4.000000000000000000e+00 8.839999999999999858e+00
1.700000000000000000e+01 4.684000000000000341e+01 9.000000000000000000e+00 1.300000000000000000e+01 4.000000000000000000e+00 8.460000000000000853e+00
1.700000000000000000e+01 4.503999999999999915e+01 9.000000000000000000e+00 1.300000000000000000e+01 4.000000000000000000e+00 8.359999999999999432e+00
1.700000000000000000e+01 4.507999999999999829e+01 9.000000000000000000e+00 1.216000000000000014e+01 4.000000000000000000e+00 8.419999999999999929e+00
1.733999999999999986e+01 4.557999999999999829e+01 9.000000000000000000e+00 1.200000000000000000e+01 4.000000000000000000e+00 8.000000000000000000e+00
1.764000000000000057e+01 4.500000000000000000e+01 9.000000000000000000e+00 1.191999999999999993e+01 4.000000000000000000e+00 8.000000000000000000e+00
1.735999999999999943e+01 4.447999999999999687e+01 9.000000000000000000e+00 1.200000000000000000e+01 4.000000000000000000e+00 7.120000000000000107e+00
1.819999999999999929e+01 4.739999999999999858e+01 8.900000000000000355e+00 1.200000000000000000e+01 4.000000000000000000e+00 7.660000000000000142e+00
1.850000000000000000e+01 4.835999999999999943e+01 8.179999999999999716e+00 1.122000000000000064e+01 4.040000000000000036e+00 8.000000000000000000e+00
1.989999999999999858e+01 5.079999999999999716e+01 8.000000000000000000e+00 1.100000000000000000e+01 4.940000000000000391e+00 8.039999999999999147e+00
2.026000000000000156e+01 5.071999999999999886e+01 8.000000000000000000e+00 1.100000000000000000e+01 5.000000000000000000e+00 9.000000000000000000e+00
5.000000000000000000e+00 2.000000000000000000e+00 1.500000000000000000e+01 2.000000000000000000e+00 0.000000000000000000e+00 1.000000000000000000e+00
5.000000000000000000e+00 2.000000000000000000e+00 1.500000000000000000e+01 2.000000000000000000e+00 0.000000000000000000e+00 1.000000000000000000e+00
5.000000000000000000e+00 2.000000000000000000e+00 1.500000000000000000e+01 2.000000000000000000e+00 0.000000000000000000e+00 1.000000000000000000e+00
5.000000000000000000e+00 2.000000000000000000e+00 1.416000000000000014e+01 2.000000000000000000e+00 8.000000000000000167e-02 1.000000000000000000e+00
5.000000000000000000e+00 2.000000000000000000e+00 1.356000000000000050e+01 2.000000000000000000e+00 1.000000000000000000e+00 1.000000000000000000e+00
5.000000000000000000e+00 2.000000000000000000e+00 1.396000000000000085e+01 2.000000000000000000e+00 6.600000000000000311e-01 1.000000000000000000e+00
5.000000000000000000e+00 2.000000000000000000e+00 1.330000000000000071e+01 2.000000000000000000e+00 0.000000000000000000e+00 1.000000000000000000e+00
4.860000000000000320e+00 2.000000000000000000e+00 1.319999999999999929e+01 2.000000000000000000e+00 0.000000000000000000e+00 1.000000000000000000e+00
4.599999999999999645e+00 2.000000000000000000e+00 1.300000000000000000e+01 2.000000000000000000e+00 0.000000000000000000e+00 1.000000000000000000e+00
4.919999999999999929e+00 2.000000000000000000e+00 1.301999999999999957e+01 2.439999999999999947e+00 0.000000000000000000e+00 1.000000000000000000e+00
4.179999999999999716e+00 2.000000000000000000e+00 1.348000000000000043e+01 3.000000000000000000e+00 0.000000000000000000e+00 1.000000000000000000e+00
4.759999999999999787e+00 2.000000000000000000e+00 1.432000000000000028e+01 3.000000000000000000e+00 5.600000000000000533e-01 1.000000000000000000e+00
4.000000000000000000e+00 2.000000000000000000e+00 1.500000000000000000e+01 2.779999999999999805e+00 1.000000000000000000e+00 1.000000000000000000e+00
4.000000000000000000e+00 2.000000000000000000e+00 1.530000000000000071e+01 2.939999999999999947e+00 9.200000000000000400e-01 1.000000000000000000e+00
4.000000000000000000e+00 2.000000000000000000e+00 1.500000000000000000e+01 2.399999999999999911e+00 0.000000000000000000e+00 1.000000000000000000e+00
4.000000000000000000e+00 2.000000000000000000e+00 1.500000000000000000e+01 2.000000000000000000e+00 0.000000000000000000e+00 1.000000000000000000e+00
4.000000000000000000e+00 2.000000000000000000e+00 1.500000000000000000e+01 2.859999999999999876e+00 0.000000000000000000e+00 1.000000000000000000e+00
4.000000000000000000e+00 2.000000000000000000e+00 1.459999999999999964e+01 3.000000000000000000e+00 8.199999999999999512e-01 1.000000000000000000e+00
4.000000000000000000e+00 2.000000000000000000e+00 1.509999999999999964e+01 3.000000000000000000e+00 1.000000000000000000e+00 1.000000000000000000e+00
4.000000000000000000e+00 2.000000000000000000e+00 1.598000000000000043e+01 3.000000000000000000e+00 1.000000000000000000e+00 1.000000000000000000e+00
4.000000000000000000e+00 2.000000000000000000e+00 1.524000000000000021e+01 3.000000000000000000e+00 1.000000000000000000e+00 1.000000000000000000e+00
4.000000000000000000e+00 2.000000000000000000e+00 1.514000000000000057e+01 3.000000000000000000e+00 1.000000000000000000e+00 1.000000000000000000e+00
4.000000000000000000e+00 2.000000000000000000e+00 1.509999999999999964e+01 3.000000000000000000e+00 1.000000000000000000e+00 1.000000000000000000e+00
4.000000000000000000e+00 2.000000000000000000e+00 1.600000000000000000e+01 3.000000000000000000e+00 1.000000000000000000e+00 1.000000000000000000e+00
4.700000000000000178e+00 2.000000000000000000e+00 1.694000000000000128e+01 3.359999999999999876e+00 1.000000000000000000e+00 1.000000000000000000e+00
4.000000000000000000e+00 2.000000000000000000e+00 1.700000000000000000e+01 4.000000000000000000e+00 1.000000000000000000e+00 1.000000000000000000e+00
4.219999999999999751e+00 2.000000000000000000e+00 1.687999999999999901e+01 3.979999999999999982e+00 1.000000000000000000e+00 1.000000000000000000e+00
5.000000000000000000e+00 2.000000000000000000e+00 1.692000000000000171e+01 3.020000000000000018e+00 1.000000000000000000e+00 1.000000000000000000e+00
5.000000000000000000e+00 2.000000000000000000e+00 1.660000000000000142e+01 3.000000000000000000e+00 7.399999999999999911e-01 1.000000000000000000e+00
5.000000000000000000e+00 2.000000000000000000e+00 1.600000000000000000e+01 3.000000000000000000e+00 0.000000000000000000e+00 1.000000000000000000e+00
5.000000000000000000e+00 2.000000000000000000e+00 1.607999999999999829e+01 3.000000000000000000e+00 0.000000000000000000e+00 1.000000000000000000e+00
5.000000000000000000e+00 2.000000000000000000e+00 1.682000000000000028e+01 3.000000000000000000e+00 0.000000000000000000e+00 1.000000000000000000e+00
5.000000000000000000e+00 2.000000000000000000e+00 1.605999999999999872e+01 3.000000000000000000e+00 0.000000000000000000e+00 1.000000000000000000e+00
5.000000000000000000e+00 2.000000000000000000e+00 1.559999999999999964e+01 3.000000000000000000e+00 0.000000000000000000e+00 1.000000000000000000e+00
5.000000000000000000e+00 2.000000000000000000e+00 1.535999999999999943e+01 3.000000000000000000e+00 0.000000000000000000e+00 1.000000000000000000e+00
5.000000000000000000e+00 2.000000000000000000e+00 1.600000000000000000e+01 3.000000000000000000e+00 0.000000000000000000e+00 1.000000000000000000e+00
5.000000000000000000e+00 2.000000000000000000e+00 1.600000000000000000e+01 3.000000000000000000e+00 0.000000000000000000e+00 1.000000000000000000e+00
5.000000000000000000e+00 2.000000000000000000e+00 1.600000000000000000e+01 3.000000000000000000e+00 0.000000000000000000e+00 1.000000000000000000e+00
4.820000000000000284e+00 2.000000000000000000e+00 1.600000000000000000e+01 3.259999999999999787e+00 0.000000000000000000e+00 1.000000000000000000e+00
4.019999999999999574e+00 2.000000000000000000e+00 1.600000000000000000e+01 3.020000000000000018e+00 0.000000000000000000e+00 1.000000000000000000e+00
1.871999999999999886e+01 4.747999999999999687e+01 2.003999999999999915e+01 2.100000000000000000e+01 9.000000000000000000e+00 2.464000000000000057e+01
1.800000000000000000e+01 4.714000000000000057e+01 2.003999999999999915e+01 2.035999999999999943e+01 9.000000000000000000e+00 2.587999999999999901e+01
1.800000000000000000e+01 4.846000000000000085e+01 1.933999999999999986e+01 2.000000000000000000e+01 9.000000000000000000e+00 2.533999999999999986e+01
1.885999999999999943e+01 4.975999999999999801e+01 1.989999999999999858e+01 2.048000000000000043e+01 9.000000000000000000e+00 2.551999999999999957e+01
1.917999999999999972e+01 5.092000000000000171e+01 2.000000000000000000e+01 2.200000000000000000e+01 9.199999999999999289e+00 2.614000000000000057e+01
1.985999999999999943e+01 5.220000000000000284e+01 2.098000000000000043e+01 2.269999999999999929e+01 1.000000000000000000e+01 2.764000000000000057e+01
1.969999999999999929e+01 5.293999999999999773e+01 2.051999999999999957e+01 2.387999999999999901e+01 1.000000000000000000e+01 2.751999999999999957e+01
2.000000000000000000e+01 5.224000000000000199e+01 2.000000000000000000e+01 2.380000000000000071e+01 1.000000000000000000e+01 2.700000000000000000e+01
2.019999999999999929e+01 5.203999999999999915e+01 1.914000000000000057e+01 2.339999999999999858e+01 9.699999999999999289e+00 2.698000000000000043e+01
2.033999999999999986e+01 5.147999999999999687e+01 1.946000000000000085e+01 2.326000000000000156e+01 9.480000000000000426e+00 2.580000000000000071e+01
2.000000000000000000e+01 4.946000000000000085e+01 1.921999999999999886e+01 2.316000000000000014e+01 1.000000000000000000e+01 2.569999999999999929e+01
2.000000000000000000e+01 4.965999999999999659e+01 1.903999999999999915e+01 2.316000000000000014e+01 9.800000000000000711e+00 2.526000000000000156e+01
1.971999999999999886e+01 4.828000000000000114e+01 1.900000000000000000e+01 2.223999999999999844e+01 9.000000000000000000e+00 2.573999999999999844e+01
1.892000000000000171e+01 4.642000000000000171e+01 1.878000000000000114e+01 2.173999999999999844e+01 9.000000000000000000e+00 2.519999999999999929e+01
1.839999999999999858e+01 4.450000000000000000e+01 1.764000000000000057e+01 2.000000000000000000e+01 8.900000000000000355e+00 2.469999999999999929e+01
1.800000000000000000e+01 4.352000000000000313e+01 1.700000000000000000e+01 1.916000000000000014e+01 8.000000000000000000e+00 2.339999999999999858e+01
1.735999999999999943e+01 4.184000000000000341e+01 1.632000000000000028e+01 1.735999999999999943e+01 8.000000000000000000e+00 2.237999999999999901e+01
1.700000000000000000e+01 4.035999999999999943e+01 1.700000000000000000e+01 1.721999999999999886e+01 7.519999999999999574e+00 2.251999999999999957e+01
1.655999999999999872e+01 4.000000000000000000e+01 1.700000000000000000e+01 1.700000000000000000e+01 7.000000000000000000e+00 2.119999999999999929e+01
1.564000000000000057e+01 3.835999999999999943e+01 1.700000000000000000e+01 1.680000000000000071e+01 7.000000000000000000e+00 2.062000000000000099e+01
1.500000000000000000e+01 3.600000000000000000e+01 1.757999999999999829e+01 1.600000000000000000e+01 7.000000000000000000e+00 2.000000000000000000e+01
1.440000000000000036e+01 3.443999999999999773e+01 1.700000000000000000e+01 1.538000000000000078e+01 7.000000000000000000e+00 1.883999999999999986e+01
1.396000000000000085e+01 3.338000000000000256e+01 1.623999999999999844e+01 1.506000000000000050e+01 7.000000000000000000e+00 1.771999999999999886e+01
1.300000000000000000e+01 3.250000000000000000e+01 1.600000000000000000e+01 1.500000000000000000e+01 6.200000000000000178e+00 1.660000000000000142e+01
1.219999999999999929e+01 3.261999999999999744e+01 1.600000000000000000e+01 1.500000000000000000e+01 6.000000000000000000e+00 1.450000000000000000e+01
1.201999999999999957e+01 3.343999999999999773e+01 1.617999999999999972e+01 1.500000000000000000e+01 6.000000000000000000e+00 1.390000000000000036e+01
1.491999999999999993e+01 4.114000000000000057e+01 1.678000000000000114e+01 1.500000000000000000e+01 6.559999999999999609e+00 1.314000000000000057e+01
1.500000000000000000e+01 4.052000000000000313e+01 1.669999999999999929e+01 1.427999999999999936e+01 7.000000000000000000e+00 1.200000000000000000e+01
1.500000000000000000e+01 4.089999999999999858e+01 1.633999999999999986e+01 1.374000000000000021e+01 7.000000000000000000e+00 1.200000000000000000e+01
1.590000000000000036e+01 4.170000000000000284e+01 1.593999999999999950e+01 1.300000000000000000e+01 6.360000000000000320e+00 1.200000000000000000e+01
1.600000000000000000e+01 4.300000000000000000e+01 1.550000000000000000e+01 1.348000000000000043e+01 6.639999999999999680e+00 1.206000000000000050e+01
1.680000000000000071e+01 4.350000000000000000e+01 1.600000000000000000e+01 1.400000000000000000e+01 7.000000000000000000e+00 1.275999999999999979e+01
1.707999999999999829e+01 4.397999999999999687e+01 1.605999999999999872e+01 1.414000000000000057e+01 6.599999999999999645e+00 1.300000000000000000e+01
1.800000000000000000e+01 4.478000000000000114e+01 1.700000000000000000e+01 1.400000000000000000e+01 6.019999999999999574e+00 1.341999999999999993e+01
1.800000000000000000e+01 4.420000000000000284e+01 1.635999999999999943e+01 1.400000000000000000e+01 6.459999999999999964e+00 1.306000000000000050e+01
1.762000000000000099e+01 4.403999999999999915e+01 1.607999999999999829e+01 1.400000000000000000e+01 6.000000000000000000e+00 1.400000000000000000e+01
1.527999999999999936e+01 3.707999999999999829e+01 1.600000000000000000e+01 1.400000000000000000e+01 6.000000000000000000e+00 1.400000000000000000e+01
1.500000000000000000e+01 3.711999999999999744e+01 1.509999999999999964e+01 1.400000000000000000e+01 5.860000000000000320e+00 1.400000000000000000e+01
1.441999999999999993e+01 3.879999999999999716e+01 1.567999999999999972e+01 1.516000000000000014e+01 6.000000000000000000e+00 1.382000000000000028e+01
1.408000000000000007e+01 4.065999999999999659e+01 1.773999999999999844e+01 1.600000000000000000e+01 6.040000000000000036e+00 1.400000000000000000e+01
2.442000000000000171e+01 9.000000000000000000e+00 7.101999999999999602e+01 1.100000000000000000e+01 8.439999999999999503e+00 2.035999999999999943e+01
2.333999999999999986e+01 9.000000000000000000e+00 7.042000000000000171e+01 1.100000000000000000e+01 8.000000000000000000e+00 2.055999999999999872e+01
2.119999999999999929e+01 9.000000000000000000e+00 6.759999999999999432e+01 1.009999999999999964e+01 7.200000000000000178e+00 2.100000000000000000e+01
2.107999999999999829e+01 8.320000000000000284e+00 6.490000000000000568e+01 1.000000000000000000e+01 6.740000000000000213e+00 1.944000000000000128e+01
2.100000000000000000e+01 8.000000000000000000e+00 6.459999999999999432e+01 9.480000000000000426e+00 6.440000000000000391e+00 1.816000000000000014e+01
2.100000000000000000e+01 8.000000000000000000e+00 6.050000000000000000e+01 9.000000000000000000e+00 6.120000000000000107e+00 1.853999999999999915e+01
2.060000000000000142e+01 8.000000000000000000e+00 5.997999999999999687e+01 8.960000000000000853e+00 6.000000000000000000e+00 1.880000000000000071e+01
2.000000000000000000e+01 8.000000000000000000e+00 6.053999999999999915e+01 8.000000000000000000e+00 6.000000000000000000e+00 2.076000000000000156e+01
1.985999999999999943e+01 8.000000000000000000e+00 6.006000000000000227e+01 8.000000000000000000e+00 6.000000000000000000e+00 2.035999999999999943e+01
1.994000000000000128e+01 8.000000000000000000e+00 5.882000000000000028e+01 8.000000000000000000e+00 6.000000000000000000e+00 2.012000000000000099e+01
2.000000000000000000e+01 8.000000000000000000e+00 5.903999999999999915e+01 8.000000000000000000e+00 6.000000000000000000e+00 2.100000000000000000e+01
1.951999999999999957e+01 8.000000000000000000e+00 5.889999999999999858e+01 8.660000000000000142e+00 6.660000000000000142e+00 2.169999999999999929e+01
1.939999999999999858e+01 8.000000000000000000e+00 5.929999999999999716e+01 8.939999999999999503e+00 7.000000000000000000e+00 2.200000000000000000e+01
1.957999999999999829e+01 8.000000000000000000e+00 5.817999999999999972e+01 9.000000000000000000e+00 6.559999999999999609e+00 2.260000000000000142e+01
1.987999999999999901e+01 8.000000000000000000e+00 5.688000000000000256e+01 8.400000000000000355e+00 6.040000000000000036e+00 2.300000000000000000e+01
1.917999999999999972e+01 7.179999999999999716e+00 5.514000000000000057e+01 8.000000000000000000e+00 6.000000000000000000e+00 2.223999999999999844e+01
1.900000000000000000e+01 6.660000000000000142e+00 5.107999999999999829e+01 8.000000000000000000e+00 5.559999999999999609e+00 2.160000000000000142e+01
1.900000000000000000e+01 6.019999999999999574e+00 4.852000000000000313e+01 8.000000000000000000e+00 5.000000000000000000e+00 1.926000000000000156e+01
1.882000000000000028e+01 6.000000000000000000e+00 4.678000000000000114e+01 8.000000000000000000e+00 5.000000000000000000e+00 1.900000000000000000e+01
1.800000000000000000e+01 6.000000000000000000e+00 4.675999999999999801e+01 8.000000000000000000e+00 5.000000000000000000e+00 1.903999999999999915e+01
1.800000000000000000e+01 6.000000000000000000e+00 4.328000000000000114e+01 7.620000000000000107e+00 5.000000000000000000e+00 1.853999999999999915e+01
1.800000000000000000e+01 6.000000000000000000e+00 4.192000000000000171e+01 7.000000000000000000e+00 5.000000000000000000e+00 1.746000000000000085e+01
1.742000000000000171e+01 6.000000000000000000e+00 3.939999999999999858e+01 7.000000000000000000e+00 5.000000000000000000e+00 1.773999999999999844e+01
1.700000000000000000e+01 5.639999999999999680e+00 4.032000000000000028e+01 7.000000000000000000e+00 5.000000000000000000e+00 1.714000000000000057e+01
1.669999999999999929e+01 5.959999999999999964e+00 4.035999999999999943e+01 7.000000000000000000e+00 5.200000000000000178e+00 1.700000000000000000e+01
1.762000000000000099e+01 6.000000000000000000e+00 4.170000000000000284e+01 7.000000000000000000e+00 6.000000000000000000e+00 1.757999999999999829e+01
1.826000000000000156e+01 6.000000000000000000e+00 4.289999999999999858e+01 7.000000000000000000e+00 5.860000000000000320e+00 1.712000000000000099e+01
1.889999999999999858e+01 6.000000000000000000e+00 4.317999999999999972e+01 7.000000000000000000e+00 6.000000000000000000e+00 1.700000000000000000e+01
1.900000000000000000e+01 6.000000000000000000e+00 4.321999999999999886e+01 7.000000000000000000e+00 6.000000000000000000e+00 1.705999999999999872e+01
1.900000000000000000e+01 5.799999999999999822e+00 4.220000000000000284e+01 7.000000000000000000e+00 5.480000000000000426e+00 1.700000000000000000e+01
1.900000000000000000e+01 5.879999999999999893e+00 4.307999999999999829e+01 7.000000000000000000e+00 5.219999999999999751e+00 1.707999999999999829e+01
1.900000000000000000e+01 6.000000000000000000e+00 4.484000000000000341e+01 7.000000000000000000e+00 5.000000000000000000e+00 1.700000000000000000e+01
1.900000000000000000e+01 6.000000000000000000e+00 4.729999999999999716e+01 7.000000000000000000e+00 5.000000000000000000e+00 1.628000000000000114e+01
1.900000000000000000e+01 6.000000000000000000e+00 4.756000000000000227e+01 7.000000000000000000e+00 5.160000000000000142e+00 1.600000000000000000e+01
1.823999999999999844e+01 6.000000000000000000e+00 4.674000000000000199e+01 7.080000000000000071e+00 5.280000000000000249e+00 1.558000000000000007e+01
1.760000000000000142e+01 6.000000000000000000e+00 4.600000000000000000e+01 7.339999999999999858e+00 5.000000000000000000e+00 1.500000000000000000e+01
1.762000000000000099e+01 6.000000000000000000e+00 4.643999999999999773e+01 8.000000000000000000e+00 5.820000000000000284e+00 1.519999999999999929e+01
1.678000000000000114e+01 6.000000000000000000e+00 4.725999999999999801e+01 8.000000000000000000e+00 5.799999999999999822e+00 1.558000000000000007e+01
1.601999999999999957e+01 6.000000000000000000e+00 4.767999999999999972e+01 7.959999999999999964e+00 6.000000000000000000e+00 1.567999999999999972e+01
1.600000000000000000e+01 6.000000000000000000e+00 4.793999999999999773e+01 7.759999999999999787e+00 6.000000000000000000e+00 1.506000000000000050e+01
7.000000000000000000e+00 3.000000000000000000e+00 2.737999999999999901e+01 3.000000000000000000e+00 1.000000000000000000e+00 4.500000000000000000e+00
7.000000000000000000e+00 3.000000000000000000e+00 2.900000000000000000e+01 3.000000000000000000e+00 1.000000000000000000e+00 5.000000000000000000e+00
6.179999999999999716e+00 3.000000000000000000e+00 2.983999999999999986e+01 3.000000000000000000e+00 8.000000000000000167e-02 5.000000000000000000e+00
6.000000000000000000e+00 3.000000000000000000e+00 2.982000000000000028e+01 3.000000000000000000e+00 0.000000000000000000e+00 5.299999999999999822e+00
6.299999999999999822e+00 3.000000000000000000e+00 2.996000000000000085e+01 3.000000000000000000e+00 5.600000000000000533e-01 6.219999999999999751e+00
6.980000000000000426e+00 3.000000000000000000e+00 3.164000000000000057e+01 3.020000000000000018e+00 1.000000000000000000e+00 7.000000000000000000e+00
7.160000000000000142e+00 3.000000000000000000e+00 3.385999999999999943e+01 4.000000000000000000e+00 1.000000000000000000e+00 7.719999999999999751e+00
8.000000000000000000e+00 3.000000000000000000e+00 3.500000000000000000e+01 4.000000000000000000e+00 1.179999999999999938e+00 8.560000000000000497e+00
8.000000000000000000e+00 3.000000000000000000e+00 3.511999999999999744e+01 4.000000000000000000e+00 2.000000000000000000e+00 9.000000000000000000e+00
7.740000000000000213e+00 3.000000000000000000e+00 3.664000000000000057e+01 4.000000000000000000e+00 2.000000000000000000e+00 9.019999999999999574e+00
7.000000000000000000e+00 3.839999999999999858e+00 3.665999999999999659e+01 4.000000000000000000e+00 2.000000000000000000e+00 9.619999999999999218e+00
7.099999999999999645e+00 4.000000000000000000e+00 3.853999999999999915e+01 4.000000000000000000e+00 2.399999999999999911e+00 1.019999999999999929e+01
8.099999999999999645e+00 4.000000000000000000e+00 3.893999999999999773e+01 4.780000000000000249e+00 3.000000000000000000e+00 1.124000000000000021e+01
1.014000000000000057e+01 5.339999999999999858e+00 4.106000000000000227e+01 5.700000000000000178e+00 3.700000000000000178e+00 1.200000000000000000e+01
1.200000000000000000e+01 6.000000000000000000e+00 4.278000000000000114e+01 7.000000000000000000e+00 5.000000000000000000e+00 1.288000000000000078e+01
1.216000000000000014e+01 6.000000000000000000e+00 4.402000000000000313e+01 7.000000000000000000e+00 5.040000000000000036e+00 1.400000000000000000e+01
1.300000000000000000e+01 6.000000000000000000e+00 4.457999999999999829e+01 7.580000000000000071e+00 5.719999999999999751e+00 1.427999999999999936e+01
1.300000000000000000e+01 6.000000000000000000e+00 4.693999999999999773e+01 8.000000000000000000e+00 6.000000000000000000e+00 1.522000000000000064e+01
1.380000000000000071e+01 6.919999999999999929e+00 4.938000000000000256e+01 8.000000000000000000e+00 6.000000000000000000e+00 1.600000000000000000e+01
1.475999999999999979e+01 7.000000000000000000e+00 5.060000000000000142e+01 8.000000000000000000e+00 6.000000000000000000e+00 1.600000000000000000e+01
1.550000000000000000e+01 7.000000000000000000e+00 5.170000000000000284e+01 8.000000000000000000e+00 6.679999999999999716e+00 1.639999999999999858e+01
1.678000000000000114e+01 7.000000000000000000e+00 5.296000000000000085e+01 8.000000000000000000e+00 6.120000000000000107e+00 1.603999999999999915e+01
1.700000000000000000e+01 7.000000000000000000e+00 5.300000000000000000e+01 8.000000000000000000e+00 7.000000000000000000e+00 1.616000000000000014e+01
1.667999999999999972e+01 6.519999999999999574e+00 5.174000000000000199e+01 8.060000000000000497e+00 6.000000000000000000e+00 1.600000000000000000e+01
1.600000000000000000e+01 6.000000000000000000e+00 5.075999999999999801e+01 7.000000000000000000e+00 5.000000000000000000e+00 1.598000000000000043e+01
1.650000000000000000e+01 6.000000000000000000e+00 5.006000000000000227e+01 7.000000000000000000e+00 5.000000000000000000e+00 1.500000000000000000e+01
1.723999999999999844e+01 6.000000000000000000e+00 4.928000000000000114e+01 7.000000000000000000e+00 5.000000000000000000e+00 1.469999999999999929e+01
1.800000000000000000e+01 6.000000000000000000e+00 4.921999999999999886e+01 7.000000000000000000e+00 5.000000000000000000e+00 1.400000000000000000e+01
1.864000000000000057e+01 6.419999999999999929e+00 4.974000000000000199e+01 7.000000000000000000e+00 5.000000000000000000e+00 1.446000000000000085e+01
1.816000000000000014e+01 6.200000000000000178e+00 5.374000000000000199e+01 7.000000000000000000e+00 5.240000000000000213e+00 1.425999999999999979e+01
1.855999999999999872e+01 6.000000000000000000e+00 5.715999999999999659e+01 7.000000000000000000e+00 6.000000000000000000e+00 1.400000000000000000e+01
1.848000000000000043e+01 6.000000000000000000e+00 5.724000000000000199e+01 7.000000000000000000e+00 6.000000000000000000e+00 1.450000000000000000e+01
1.800000000000000000e+01 6.679999999999999716e+00 5.900000000000000000e+01 7.000000000000000000e+00 6.000000000000000000e+00 1.400000000000000000e+01
1.800000000000000000e+01 6.219999999999999751e+00 5.921999999999999886e+01 6.339999999999999858e+00 6.000000000000000000e+00 1.390000000000000036e+01
1.800000000000000000e+01 6.000000000000000000e+00 6.057999999999999829e+01 6.000000000000000000e+00 6.000000000000000000e+00 1.498000000000000043e+01
1.762000000000000099e+01 6.000000000000000000e+00 6.093999999999999773e+01 6.000000000000000000e+00 6.000000000000000000e+00 1.567999999999999972e+01
1.700000000000000000e+01 6.000000000000000000e+00 6.102000000000000313e+01 6.000000000000000000e+00 6.000000000000000000e+00 1.600000000000000000e+01
1.669999999999999929e+01 6.000000000000000000e+00 5.970000000000000284e+01 6.000000000000000000e+00 6.000000000000000000e+00 1.567999999999999972e+01
1.612000000000000099e+01 6.000000000000000000e+00 5.889999999999999858e+01 6.000000000000000000e+00 6.000000000000000000e+00 1.540000000000000036e+01
1.637999999999999901e+01 6.000000000000000000e+00 5.529999999999999716e+01 6.360000000000000320e+00 5.799999999999999822e+00 1.616000000000000014e+01
2.000000000000000000e+00 2.000000000000000000e+00 1.000000000000000000e+00 1.000000000000000000e+00 0.000000000000000000e+00 2.000000000000000000e+00
2.000000000000000000e+00 2.000000000000000000e+00 1.000000000000000000e+00 1.000000000000000000e+00 0.000000000000000000e+00 2.000000000000000000e+00
2.000000000000000000e+00 2.000000000000000000e+00 1.000000000000000000e+00 1.000000000000000000e+00 0.000000000000000000e+00 2.000000000000000000e+00
2.000000000000000000e+00 2.000000000000000000e+00 1.000000000000000000e+00 1.000000000000000000e+00 0.000000000000000000e+00 2.000000000000000000e+00
2.000000000000000000e+00 2.000000000000000000e+00 1.000000000000000000e+00 1.000000000000000000e+00 0.000000000000000000e+00 1.459999999999999964e+00
2.000000000000000000e+00 2.000000000000000000e+00 1.000000000000000000e+00 1.000000000000000000e+00 0.000000000000000000e+00 1.000000000000000000e+00
2.000000000000000000e+00 2.000000000000000000e+00 1.000000000000000000e+00 1.000000000000000000e+00 0.000000000000000000e+00 1.000000000000000000e+00
2.000000000000000000e+00 2.000000000000000000e+00 1.000000000000000000e+00 1.000000000000000000e+00 0.000000000000000000e+00 1.560000000000000053e+00
2.000000000000000000e+00 2.000000000000000000e+00 1.000000000000000000e+00 1.000000000000000000e+00 0.000000000000000000e+00 2.000000000000000000e+00
2.000000000000000000e+00 2.000000000000000000e+00 1.000000000000000000e+00 1.000000000000000000e+00 0.000000000000000000e+00 2.000000000000000000e+00
2.000000000000000000e+00 2.000000000000000000e+00 1.000000000000000000e+00 1.000000000000000000e+00 0.000000000000000000e+00 2.000000000000000000e+00
2.000000000000000000e+00 2.000000000000000000e+00 1.000000000000000000e+00 1.000000000000000000e+00 0.000000000000000000e+00 2.000000000000000000e+00
2.000000000000000000e+00 2.000000000000000000e+00 1.000000000000000000e+00 1.000000000000000000e+00 0.000000000000000000e+00 2.000000000000000000e+00
2.000000000000000000e+00 2.000000000000000000e+00 1.000000000000000000e+00 1.000000000000000000e+00 0.000000000000000000e+00 2.000000000000000000e+00
2.000000000000000000e+00 2.000000000000000000e+00 1.000000000000000000e+00 1.000000000000000000e+00 0.000000000000000000e+00 2.000000000000000000e+00
2.000000000000000000e+00 2.000000000000000000e+00 1.000000000000000000e+00 1.000000000000000000e+00 0.000000000000000000e+00 2.000000000000000000e+00
2.000000000000000000e+00 2.000000000000000000e+00 1.000000000000000000e+00 1.000000000000000000e+00 0.000000000000000000e+00 1.820000000000000062e+00
2.000000000000000000e+00 2.000000000000000000e+00 1.000000000000000000e+00 1.000000000000000000e+00 0.000000000000000000e+00 1.000000000000000000e+00
2.000000000000000000e+00 2.000000000000000000e+00 1.000000000000000000e+00 1.000000000000000000e+00 0.000000000000000000e+00 1.000000000000000000e+00
2.000000000000000000e+00 2.000000000000000000e+00 1.000000000000000000e+00 1.000000000000000000e+00 0.000000000000000000e+00 1.000000000000000000e+00
2.000000000000000000e+00 2.000000000000000000e+00 1.000000000000000000e+00 1.000000000000000000e+00 0.000000000000000000e+00 1.000000000000000000e+00
2.000000000000000000e+00 2.000000000000000000e+00 1.000000000000000000e+00 1.000000000000000000e+00 0.000000000000000000e+00 1.000000000000000000e+00
2.000000000000000000e+00 2.000000000000000000e+00 1.000000000000000000e+00 1.000000000000000000e+00 0.000000000000000000e+00 1.000000000000000000e+00
2.000000000000000000e+00 2.000000000000000000e+00 1.000000000000000000e+00 1.000000000000000000e+00 0.000000000000000000e+00 1.000000000000000000e+00
2.000000000000000000e+00 2.000000000000000000e+00 1.000000000000000000e+00 1.000000000000000000e+00 0.000000000000000000e+00 1.000000000000000000e+00
2.000000000000000000e+00 2.000000000000000000e+00 1.000000000000000000e+00 1.000000000000000000e+00 0.000000000000000000e+00 1.000000000000000000e+00
2.000000000000000000e+00 2.000000000000000000e+00 1.000000000000000000e+00 1.000000000000000000e+00 0.000000000000000000e+00 1.000000000000000000e+00
2.000000000000000000e+00 2.000000000000000000e+00 1.000000000000000000e+00 1.000000000000000000e+00 0.000000000000000000e+00 1.000000000000000000e+00
2.000000000000000000e+00 2.000000000000000000e+00 1.000000000000000000e+00 1.000000000000000000e+00 0.000000000000000000e+00 1.000000000000000000e+00
2.000000000000000000e+00 2.000000000000000000e+00 1.000000000000000000e+00 1.000000000000000000e+00 0.000000000000000000e+00 1.000000000000000000e+00
2.000000000000000000e+00 2.000000000000000000e+00 1.000000000000000000e+00 1.000000000000000000e+00 0.000000000000000000e+00 1.000000000000000000e+00
2.000000000000000000e+00 2.000000000000000000e+00 1.000000000000000000e+00 1.000000000000000000e+00 0.000000000000000000e+00 1.000000000000000000e+00
2.000000000000000000e+00 2.000000000000000000e+00 1.000000000000000000e+00 1.000000000000000000e+00 0.000000000000000000e+00 1.000000000000000000e+00
2.000000000000000000e+00 2.000000000000000000e+00 1.000000000000000000e+00 1.000000000000000000e+00 0.000000000000000000e+00 1.000000000000000000e+00
2.000000000000000000e+00 2.000000000000000000e+00 1.000000000000000000e+00 1.000000000000000000e+00 0.000000000000000000e+00 1.000000000000000000e+00
2.000000000000000000e+00 2.000000000000000000e+00 1.000000000000000000e+00 1.000000000000000000e+00 0.000000000000000000e+00 1.000000000000000000e+00
2.000000000000000000e+00 2.000000000000000000e+00 1.000000000000000000e+00 1.000000000000000000e+00 0.000000000000000000e+00 1.000000000000000000e+00
2.000000000000000000e+00 1.179999999999999938e+00 1.000000000000000000e+00 1.000000000000000000e+00 0.000000000000000000e+00 1.000000000000000000e+00
2.000000000000000000e+00 1.000000000000000000e+00 1.000000000000000000e+00 1.000000000000000000e+00 0.000000000000000000e+00 1.000000000000000000e+00
1.479999999999999982e+00 1.000000000000000000e+00 1.000000000000000000e+00 1.000000000000000000e+00 0.000000000000000000e+00 2.800000000000000266e-01
