1.200000000000000000e+01 1.500000000000000000e+01 7.504000000000000625e+01 1.414000000000000057e+01 1.196000000000000085e+01 8.000000000000000000e+00
1.200000000000000000e+01 1.491999999999999993e+01 7.492000000000000171e+01 1.358000000000000007e+01 1.100000000000000000e+01 8.000000000000000000e+00
1.200000000000000000e+01 1.409999999999999964e+01 7.023999999999999488e+01 1.300000000000000000e+01 1.074000000000000021e+01 8.000000000000000000e+00
1.200000000000000000e+01 1.400000000000000000e+01 6.818000000000000682e+01 1.296000000000000085e+01 9.960000000000000853e+00 8.000000000000000000e+00
1.200000000000000000e+01 1.380000000000000071e+01 6.512000000000000455e+01 1.259999999999999964e+01 9.060000000000000497e+00 8.000000000000000000e+00
1.158000000000000007e+01 1.300000000000000000e+01 6.215999999999999659e+01 1.253999999999999915e+01 9.000000000000000000e+00 7.320000000000000284e+00
1.088000000000000078e+01 1.300000000000000000e+01 5.964000000000000057e+01 1.264000000000000057e+01 9.000000000000000000e+00 7.000000000000000000e+00
1.050000000000000000e+01 1.256000000000000050e+01 5.867999999999999972e+01 1.217999999999999972e+01 9.000000000000000000e+00 7.000000000000000000e+00
1.000000000000000000e+01 1.190000000000000036e+01 5.765999999999999659e+01 1.200000000000000000e+01 9.000000000000000000e+00 7.000000000000000000e+00
1.074000000000000021e+01 1.190000000000000036e+01 5.682000000000000028e+01 1.208000000000000007e+01 9.000000000000000000e+00 7.000000000000000000e+00
1.100000000000000000e+01 1.172000000000000064e+01 5.584000000000000341e+01 1.200000000000000000e+01 9.619999999999999218e+00 7.000000000000000000e+00
1.100000000000000000e+01 1.175999999999999979e+01 5.167999999999999972e+01 1.200000000000000000e+01 1.000000000000000000e+01 7.000000000000000000e+00
1.093999999999999950e+01 1.217999999999999972e+01 4.885999999999999943e+01 1.224000000000000021e+01 1.000000000000000000e+01 7.099999999999999645e+00
1.000000000000000000e+01 1.222000000000000064e+01 4.952000000000000313e+01 1.300000000000000000e+01 1.022000000000000064e+01 8.000000000000000000e+00
1.000000000000000000e+01 1.274000000000000021e+01 5.096000000000000085e+01 1.258000000000000007e+01 1.098000000000000043e+01 8.000000000000000000e+00
1.017999999999999972e+01 1.300000000000000000e+01 5.157999999999999829e+01 1.200000000000000000e+01 1.000000000000000000e+01 8.000000000000000000e+00
1.059999999999999964e+01 1.300000000000000000e+01 5.114000000000000057e+01 1.200000000000000000e+01 1.000000000000000000e+01 8.000000000000000000e+00
1.100000000000000000e+01 1.248000000000000043e+01 4.935999999999999943e+01 1.135999999999999943e+01 1.000000000000000000e+01 8.000000000000000000e+00
1.100000000000000000e+01 1.259999999999999964e+01 4.934000000000000341e+01 1.100000000000000000e+01 1.000000000000000000e+01 8.000000000000000000e+00
1.025999999999999979e+01 1.232000000000000028e+01 4.767999999999999972e+01 1.027999999999999936e+01 9.740000000000000213e+00 7.959999999999999964e+00
1.000000000000000000e+01 1.200000000000000000e+01 4.732000000000000028e+01 1.000000000000000000e+01 9.359999999999999432e+00 7.679999999999999716e+00
9.539999999999999147e+00 1.133999999999999986e+01 4.988000000000000256e+01 1.000000000000000000e+01 9.000000000000000000e+00 7.519999999999999574e+00
9.980000000000000426e+00 1.100000000000000000e+01 5.102000000000000313e+01 9.220000000000000639e+00 8.240000000000000213e+00 7.000000000000000000e+00
1.000000000000000000e+01 1.100000000000000000e+01 4.979999999999999716e+01 9.000000000000000000e+00 8.060000000000000497e+00 7.000000000000000000e+00
1.000000000000000000e+01 1.100000000000000000e+01 4.934000000000000341e+01 9.000000000000000000e+00 8.000000000000000000e+00 7.000000000000000000e+00
9.300000000000000711e+00 1.022000000000000064e+01 4.846000000000000085e+01 8.460000000000000853e+00 8.000000000000000000e+00 6.860000000000000320e+00
9.400000000000000355e+00 1.061999999999999922e+01 4.939999999999999858e+01 8.400000000000000355e+00 8.000000000000000000e+00 6.959999999999999964e+00
9.000000000000000000e+00 1.100000000000000000e+01 5.050000000000000000e+01 8.660000000000000142e+00 7.959999999999999964e+00 6.000000000000000000e+00
9.000000000000000000e+00 1.085999999999999943e+01 5.000000000000000000e+01 9.000000000000000000e+00 7.120000000000000107e+00 6.160000000000000142e+00
9.000000000000000000e+00 1.067999999999999972e+01 4.947999999999999687e+01 9.000000000000000000e+00 7.980000000000000426e+00 6.879999999999999893e+00
8.839999999999999858e+00 1.059999999999999964e+01 5.032000000000000028e+01 9.000000000000000000e+00 7.500000000000000000e+00 6.459999999999999964e+00
8.539999999999999147e+00 1.038000000000000078e+01 4.910000000000000142e+01 9.000000000000000000e+00 8.000000000000000000e+00 6.000000000000000000e+00
8.960000000000000853e+00 1.009999999999999964e+01 4.903999999999999915e+01 9.000000000000000000e+00 8.000000000000000000e+00 6.000000000000000000e+00
8.000000000000000000e+00 1.000000000000000000e+01 5.220000000000000284e+01 9.000000000000000000e+00 7.580000000000000071e+00 6.000000000000000000e+00
8.000000000000000000e+00 1.000000000000000000e+01 5.200000000000000000e+01 9.000000000000000000e+00 8.000000000000000000e+00 6.000000000000000000e+00
8.000000000000000000e+00 1.000000000000000000e+01 5.193999999999999773e+01 9.000000000000000000e+00 8.000000000000000000e+00 6.000000000000000000e+00
8.000000000000000000e+00 1.009999999999999964e+01 5.178000000000000114e+01 9.500000000000000000e+00 8.519999999999999574e+00 6.000000000000000000e+00
8.000000000000000000e+00 1.100000000000000000e+01 5.039999999999999858e+01 9.619999999999999218e+00 9.000000000000000000e+00 6.160000000000000142e+00
8.000000000000000000e+00 1.100000000000000000e+01 4.965999999999999659e+01 9.000000000000000000e+00 9.000000000000000000e+00 6.040000000000000036e+00
8.000000000000000000e+00 1.100000000000000000e+01 4.997999999999999687e+01 9.119999999999999218e+00 9.679999999999999716e+00 6.000000000000000000e+00
3.220000000000000284e+01 3.532000000000000028e+01 1.314000000000000057e+01 2.078000000000000114e+01 1.200000000000000000e+01 2.342000000000000171e+01
3.164000000000000057e+01 3.542000000000000171e+01 1.300000000000000000e+01 1.962000000000000099e+01 1.148000000000000043e+01 2.282000000000000028e+01
3.157999999999999829e+01 3.529999999999999716e+01 1.288000000000000078e+01 1.926000000000000156e+01 1.200000000000000000e+01 2.233999999999999986e+01
3.247999999999999687e+01 3.600000000000000000e+01 1.300000000000000000e+01 1.912000000000000099e+01 1.200000000000000000e+01 2.300000000000000000e+01
3.300000000000000000e+01 3.600000000000000000e+01 1.340000000000000036e+01 1.914000000000000057e+01 1.200000000000000000e+01 2.300000000000000000e+01
3.300000000000000000e+01 3.565999999999999659e+01 1.341999999999999993e+01 1.900000000000000000e+01 1.200000000000000000e+01 2.264000000000000057e+01
3.278000000000000114e+01 3.450000000000000000e+01 1.283999999999999986e+01 1.894000000000000128e+01 1.183999999999999986e+01 2.230000000000000071e+01
3.242000000000000171e+01 3.132000000000000028e+01 1.200000000000000000e+01 1.867999999999999972e+01 1.198000000000000043e+01 2.276000000000000156e+01
3.110000000000000142e+01 2.950000000000000000e+01 1.167999999999999972e+01 1.733999999999999986e+01 1.127999999999999936e+01 2.301999999999999957e+01
2.880000000000000071e+01 2.707999999999999829e+01 1.100000000000000000e+01 1.717999999999999972e+01 1.200000000000000000e+01 2.300000000000000000e+01
2.773999999999999844e+01 2.592000000000000171e+01 1.114000000000000057e+01 1.701999999999999957e+01 1.243999999999999950e+01 2.300000000000000000e+01
2.600000000000000000e+01 2.373999999999999844e+01 1.169999999999999929e+01 1.700000000000000000e+01 1.340000000000000036e+01 2.326000000000000156e+01
2.587999999999999901e+01 2.294000000000000128e+01 1.200000000000000000e+01 1.700000000000000000e+01 1.335999999999999943e+01 2.317999999999999972e+01
2.373999999999999844e+01 2.221999999999999886e+01 1.248000000000000043e+01 1.700000000000000000e+01 1.300000000000000000e+01 2.396000000000000085e+01
2.157999999999999829e+01 2.060000000000000142e+01 1.208000000000000007e+01 1.644000000000000128e+01 1.314000000000000057e+01 2.400000000000000000e+01
2.069999999999999929e+01 2.146000000000000085e+01 1.200000000000000000e+01 1.655999999999999872e+01 1.400000000000000000e+01 2.400000000000000000e+01
2.094000000000000128e+01 2.262000000000000099e+01 1.200000000000000000e+01 1.591999999999999993e+01 1.400000000000000000e+01 2.364000000000000057e+01
2.039999999999999858e+01 2.317999999999999972e+01 1.200000000000000000e+01 1.500000000000000000e+01 1.400000000000000000e+01 2.248000000000000043e+01
2.000000000000000000e+01 2.317999999999999972e+01 1.200000000000000000e+01 1.500000000000000000e+01 1.396000000000000085e+01 2.173999999999999844e+01
2.046000000000000085e+01 2.300000000000000000e+01 1.277999999999999936e+01 1.533999999999999986e+01 1.300000000000000000e+01 2.151999999999999957e+01
2.100000000000000000e+01 2.300000000000000000e+01 1.282000000000000028e+01 1.532000000000000028e+01 1.300000000000000000e+01 2.119999999999999929e+01
2.060000000000000142e+01 2.300000000000000000e+01 1.288000000000000078e+01 1.500000000000000000e+01 1.250000000000000000e+01 2.164000000000000057e+01
1.907999999999999829e+01 2.323999999999999844e+01 1.272000000000000064e+01 1.500000000000000000e+01 1.200000000000000000e+01 2.117999999999999972e+01
1.905999999999999872e+01 2.300000000000000000e+01 1.196000000000000085e+01 1.491999999999999993e+01 1.200000000000000000e+01 2.021999999999999886e+01
1.944000000000000128e+01 2.287999999999999901e+01 1.109999999999999964e+01 1.403999999999999915e+01 1.185999999999999943e+01 1.923999999999999844e+01
2.021999999999999886e+01 2.192000000000000171e+01 1.148000000000000043e+01 1.400000000000000000e+01 1.100000000000000000e+01 1.900000000000000000e+01
2.042000000000000171e+01 2.023999999999999844e+01 1.200000000000000000e+01 1.400000000000000000e+01 1.100000000000000000e+01 1.900000000000000000e+01
1.998000000000000043e+01 1.864000000000000057e+01 1.200000000000000000e+01 1.440000000000000036e+01 1.024000000000000021e+01 1.900000000000000000e+01
2.000000000000000000e+01 1.800000000000000000e+01 1.200000000000000000e+01 1.500000000000000000e+01 1.083999999999999986e+01 1.814000000000000057e+01
1.901999999999999957e+01 1.760000000000000142e+01 1.132000000000000028e+01 1.464000000000000057e+01 1.100000000000000000e+01 1.916000000000000014e+01
1.983999999999999986e+01 1.819999999999999929e+01 1.111999999999999922e+01 1.409999999999999964e+01 1.003999999999999915e+01 2.000000000000000000e+01
2.067999999999999972e+01 1.882000000000000028e+01 1.148000000000000043e+01 1.496000000000000085e+01 9.859999999999999432e+00 1.973999999999999844e+01
2.123999999999999844e+01 1.846000000000000085e+01 1.100000000000000000e+01 1.422000000000000064e+01 9.419999999999999929e+00 1.930000000000000071e+01
2.100000000000000000e+01 1.905999999999999872e+01 1.100000000000000000e+01 1.459999999999999964e+01 1.080000000000000071e+01 2.000000000000000000e+01
2.139999999999999858e+01 1.982000000000000028e+01 1.100000000000000000e+01 1.472000000000000064e+01 1.088000000000000078e+01 2.000000000000000000e+01
2.160000000000000142e+01 1.971999999999999886e+01 1.100000000000000000e+01 1.425999999999999979e+01 1.100000000000000000e+01 2.026000000000000156e+01
2.100000000000000000e+01 2.012000000000000099e+01 1.100000000000000000e+01 1.482000000000000028e+01 1.100000000000000000e+01 2.048000000000000043e+01
2.128000000000000114e+01 2.016000000000000014e+01 1.100000000000000000e+01 1.403999999999999915e+01 1.100000000000000000e+01 2.092000000000000171e+01
2.196000000000000085e+01 2.089999999999999858e+01 1.100000000000000000e+01 1.400000000000000000e+01 1.069999999999999929e+01 2.089999999999999858e+01
2.200000000000000000e+01 2.076000000000000156e+01 1.100000000000000000e+01 1.400000000000000000e+01 1.100000000000000000e+01 1.982000000000000028e+01
4.000000000000000000e+01 3.514000000000000057e+01 1.364000000000000057e+01 1.907999999999999829e+01 1.259999999999999964e+01 1.828000000000000114e+01
4.000000000000000000e+01 3.592000000000000171e+01 1.300000000000000000e+01 2.000000000000000000e+01 1.300000000000000000e+01 1.900000000000000000e+01
3.953999999999999915e+01 3.506000000000000227e+01 1.300000000000000000e+01 1.987999999999999901e+01 1.300000000000000000e+01 1.857999999999999829e+01
3.982000000000000028e+01 3.578000000000000114e+01 1.206000000000000050e+01 1.892000000000000171e+01 1.300000000000000000e+01 1.932000000000000028e+01
3.975999999999999801e+01 3.460000000000000142e+01 1.200000000000000000e+01 1.883999999999999986e+01 1.301999999999999957e+01 1.850000000000000000e+01
3.611999999999999744e+01 3.282000000000000028e+01 1.217999999999999972e+01 1.800000000000000000e+01 1.300000000000000000e+01 1.900000000000000000e+01
3.148000000000000043e+01 2.805999999999999872e+01 1.222000000000000064e+01 1.782000000000000028e+01 1.324000000000000021e+01 1.907999999999999829e+01
2.839999999999999858e+01 2.751999999999999957e+01 1.200000000000000000e+01 1.714000000000000057e+01 1.393999999999999950e+01 2.046000000000000085e+01
2.789999999999999858e+01 2.673999999999999844e+01 1.200000000000000000e+01 1.700000000000000000e+01 1.400000000000000000e+01 2.094000000000000128e+01
2.653999999999999915e+01 2.548000000000000043e+01 1.200000000000000000e+01 1.671999999999999886e+01 1.400000000000000000e+01 2.100000000000000000e+01
2.600000000000000000e+01 2.451999999999999957e+01 1.196000000000000085e+01 1.600000000000000000e+01 1.377999999999999936e+01 2.089999999999999858e+01
2.542000000000000171e+01 2.214000000000000057e+01 1.200000000000000000e+01 1.600000000000000000e+01 1.300000000000000000e+01 2.085999999999999943e+01
2.600000000000000000e+01 2.219999999999999929e+01 1.200000000000000000e+01 1.600000000000000000e+01 1.300000000000000000e+01 2.092000000000000171e+01
2.571999999999999886e+01 2.112000000000000099e+01 1.166000000000000014e+01 1.600000000000000000e+01 1.366000000000000014e+01 1.933999999999999986e+01
2.444000000000000128e+01 2.017999999999999972e+01 1.109999999999999964e+01 1.600000000000000000e+01 1.300000000000000000e+01 1.953999999999999915e+01
2.378000000000000114e+01 1.900000000000000000e+01 1.080000000000000071e+01 1.556000000000000050e+01 1.300000000000000000e+01 2.066000000000000014e+01
2.298000000000000043e+01 1.894000000000000128e+01 1.025999999999999979e+01 1.540000000000000036e+01 1.222000000000000064e+01 2.089999999999999858e+01
2.300000000000000000e+01 1.796000000000000085e+01 1.082000000000000028e+01 1.517999999999999972e+01 1.203999999999999915e+01 1.978000000000000114e+01
2.150000000000000000e+01 1.705999999999999872e+01 1.069999999999999929e+01 1.593999999999999950e+01 1.203999999999999915e+01 1.996000000000000085e+01
2.100000000000000000e+01 1.696000000000000085e+01 1.027999999999999936e+01 1.600000000000000000e+01 1.240000000000000036e+01 2.000000000000000000e+01
2.100000000000000000e+01 1.600000000000000000e+01 1.000000000000000000e+01 1.600000000000000000e+01 1.203999999999999915e+01 2.012000000000000099e+01
2.012000000000000099e+01 1.600000000000000000e+01 1.000000000000000000e+01 1.600000000000000000e+01 1.267999999999999972e+01 2.001999999999999957e+01
1.905999999999999872e+01 1.556000000000000050e+01 1.000000000000000000e+01 1.575999999999999979e+01 1.300000000000000000e+01 2.087999999999999901e+01
1.955999999999999872e+01 1.500000000000000000e+01 1.000000000000000000e+01 1.514000000000000057e+01 1.208000000000000007e+01 2.100000000000000000e+01
1.900000000000000000e+01 1.500000000000000000e+01 1.050000000000000000e+01 1.501999999999999957e+01 1.200000000000000000e+01 2.189999999999999858e+01
1.894000000000000128e+01 1.491999999999999993e+01 1.143999999999999950e+01 1.543999999999999950e+01 1.246000000000000085e+01 2.133999999999999986e+01
1.900000000000000000e+01 1.472000000000000064e+01 1.200000000000000000e+01 1.591999999999999993e+01 1.300000000000000000e+01 2.160000000000000142e+01
1.939999999999999858e+01 1.588000000000000078e+01 1.200000000000000000e+01 1.600000000000000000e+01 1.300000000000000000e+01 2.200000000000000000e+01
2.100000000000000000e+01 1.864000000000000057e+01 1.200000000000000000e+01 1.600000000000000000e+01 1.290000000000000036e+01 2.103999999999999915e+01
2.107999999999999829e+01 1.900000000000000000e+01 1.200000000000000000e+01 1.600000000000000000e+01 1.200000000000000000e+01 2.100000000000000000e+01
2.200000000000000000e+01 1.900000000000000000e+01 1.200000000000000000e+01 1.600000000000000000e+01 1.251999999999999957e+01 2.142000000000000171e+01
2.200000000000000000e+01 1.900000000000000000e+01 1.200000000000000000e+01 1.600000000000000000e+01 1.243999999999999950e+01 2.100000000000000000e+01
2.200000000000000000e+01 1.900000000000000000e+01 1.200000000000000000e+01 1.600000000000000000e+01 1.227999999999999936e+01 2.094000000000000128e+01
2.117999999999999972e+01 1.912000000000000099e+01 1.200000000000000000e+01 1.541999999999999993e+01 1.300000000000000000e+01 2.103999999999999915e+01
2.100000000000000000e+01 1.933999999999999986e+01 1.200000000000000000e+01 1.500000000000000000e+01 1.275999999999999979e+01 2.039999999999999858e+01
2.080000000000000071e+01 1.900000000000000000e+01 1.141999999999999993e+01 1.500000000000000000e+01 1.241999999999999993e+01 2.000000000000000000e+01
2.019999999999999929e+01 1.946000000000000085e+01 1.100000000000000000e+01 1.427999999999999936e+01 1.288000000000000078e+01 2.000000000000000000e+01
1.983999999999999986e+01 1.926000000000000156e+01 1.080000000000000071e+01 1.400000000000000000e+01 1.300000000000000000e+01 2.000000000000000000e+01
1.912000000000000099e+01 1.700000000000000000e+01 1.100000000000000000e+01 1.451999999999999957e+01 1.300000000000000000e+01 2.000000000000000000e+01
1.869999999999999929e+01 1.766000000000000014e+01 1.100000000000000000e+01 1.400000000000000000e+01 1.300000000000000000e+01 2.000000000000000000e+01
4.000000000000000000e+00 4.000000000000000000e+00 1.133999999999999986e+01 7.000000000000000000e+00 2.000000000000000000e+00 5.000000000000000000e+00
4.000000000000000000e+00 4.000000000000000000e+00 1.200000000000000000e+01 7.000000000000000000e+00 2.000000000000000000e+00 5.000000000000000000e+00
4.139999999999999680e+00 4.000000000000000000e+00 1.200000000000000000e+01 7.000000000000000000e+00 2.000000000000000000e+00 5.000000000000000000e+00
4.080000000000000071e+00 4.000000000000000000e+00 1.200000000000000000e+01 7.000000000000000000e+00 2.000000000000000000e+00 5.000000000000000000e+00
4.000000000000000000e+00 4.000000000000000000e+00 1.133999999999999986e+01 7.000000000000000000e+00 2.000000000000000000e+00 5.000000000000000000e+00
4.000000000000000000e+00 4.000000000000000000e+00 1.080000000000000071e+01 7.000000000000000000e+00 1.239999999999999991e+00 5.000000000000000000e+00
3.899999999999999911e+00 4.000000000000000000e+00 1.000000000000000000e+01 6.839999999999999858e+00 1.000000000000000000e+00 5.000000000000000000e+00
3.220000000000000195e+00 3.100000000000000089e+00 1.000000000000000000e+01 6.839999999999999858e+00 8.599999999999999867e-01 5.000000000000000000e+00
4.000000000000000000e+00 3.000000000000000000e+00 1.000000000000000000e+01 6.540000000000000036e+00 0.000000000000000000e+00 5.000000000000000000e+00
3.660000000000000142e+00 3.000000000000000000e+00 1.000000000000000000e+01 6.000000000000000000e+00 7.399999999999999911e-01 5.000000000000000000e+00
3.000000000000000000e+00 3.000000000000000000e+00 9.839999999999999858e+00 6.000000000000000000e+00 4.799999999999999822e-01 5.000000000000000000e+00
3.000000000000000000e+00 3.000000000000000000e+00 1.000000000000000000e+01 6.000000000000000000e+00 1.400000000000000133e-01 5.000000000000000000e+00
3.000000000000000000e+00 3.000000000000000000e+00 1.000000000000000000e+01 6.620000000000000107e+00 1.000000000000000000e+00 5.000000000000000000e+00
3.160000000000000142e+00 3.000000000000000000e+00 1.058000000000000007e+01 7.000000000000000000e+00 1.000000000000000000e+00 5.000000000000000000e+00
4.000000000000000000e+00 3.000000000000000000e+00 1.100000000000000000e+01 7.000000000000000000e+00 1.000000000000000000e+00 5.000000000000000000e+00
4.000000000000000000e+00 3.000000000000000000e+00 1.100000000000000000e+01 7.440000000000000391e+00 1.000000000000000000e+00 5.000000000000000000e+00
3.879999999999999893e+00 3.000000000000000000e+00 1.100000000000000000e+01 8.000000000000000000e+00 1.000000000000000000e+00 5.000000000000000000e+00
4.000000000000000000e+00 3.000000000000000000e+00 1.150000000000000000e+01 8.000000000000000000e+00 1.000000000000000000e+00 5.000000000000000000e+00
3.799999999999999822e+00 3.000000000000000000e+00 1.119999999999999929e+01 8.000000000000000000e+00 1.760000000000000009e+00 5.000000000000000000e+00
3.000000000000000000e+00 3.000000000000000000e+00 1.100000000000000000e+01 8.000000000000000000e+00 1.260000000000000009e+00 5.000000000000000000e+00
3.140000000000000124e+00 3.000000000000000000e+00 1.106000000000000050e+01 8.000000000000000000e+00 1.000000000000000000e+00 5.000000000000000000e+00
3.040000000000000036e+00 3.000000000000000000e+00 1.100000000000000000e+01 8.000000000000000000e+00 1.000000000000000000e+00 5.000000000000000000e+00
3.000000000000000000e+00 3.000000000000000000e+00 1.100000000000000000e+01 7.240000000000000213e+00 1.739999999999999991e+00 5.000000000000000000e+00
3.000000000000000000e+00 3.000000000000000000e+00 1.075999999999999979e+01 7.000000000000000000e+00 1.860000000000000098e+00 5.000000000000000000e+00
3.000000000000000000e+00 3.000000000000000000e+00 1.000000000000000000e+01 7.000000000000000000e+00 1.000000000000000000e+00 5.000000000000000000e+00
3.000000000000000000e+00 3.000000000000000000e+00 1.022000000000000064e+01 6.879999999999999893e+00 1.620000000000000107e+00 5.000000000000000000e+00
3.000000000000000000e+00 3.000000000000000000e+00 1.100000000000000000e+01 6.000000000000000000e+00 1.639999999999999902e+00 5.000000000000000000e+00
3.000000000000000000e+00 3.000000000000000000e+00 1.009999999999999964e+01 6.000000000000000000e+00 1.340000000000000080e+00 5.000000000000000000e+00
3.000000000000000000e+00 3.000000000000000000e+00 1.000000000000000000e+01 6.000000000000000000e+00 1.000000000000000000e+00 4.480000000000000426e+00
3.000000000000000000e+00 3.000000000000000000e+00 1.053999999999999915e+01 6.000000000000000000e+00 1.179999999999999938e+00 4.120000000000000107e+00
3.000000000000000000e+00 3.000000000000000000e+00 1.103999999999999915e+01 6.000000000000000000e+00 2.000000000000000000e+00 4.000000000000000000e+00
3.000000000000000000e+00 3.000000000000000000e+00 1.100000000000000000e+01 6.000000000000000000e+00 2.000000000000000000e+00 4.000000000000000000e+00
3.000000000000000000e+00 3.000000000000000000e+00 1.100000000000000000e+01 6.000000000000000000e+00 1.260000000000000009e+00 4.000000000000000000e+00
3.000000000000000000e+00 3.000000000000000000e+00 1.100000000000000000e+01 6.000000000000000000e+00 1.000000000000000000e+00 4.000000000000000000e+00
3.000000000000000000e+00 3.000000000000000000e+00 1.111999999999999922e+01 6.000000000000000000e+00 1.000000000000000000e+00 4.019999999999999574e+00
3.000000000000000000e+00 3.000000000000000000e+00 1.177999999999999936e+01 5.940000000000000391e+00 1.000000000000000000e+00 4.599999999999999645e+00
3.000000000000000000e+00 3.000000000000000000e+00 1.166000000000000014e+01 6.000000000000000000e+00 1.000000000000000000e+00 4.000000000000000000e+00
3.000000000000000000e+00 3.000000000000000000e+00 1.200000000000000000e+01 6.000000000000000000e+00 1.000000000000000000e+00 4.000000000000000000e+00
3.000000000000000000e+00 3.000000000000000000e+00 1.303999999999999915e+01 6.000000000000000000e+00 1.000000000000000000e+00 4.000000000000000000e+00
3.000000000000000000e+00 3.580000000000000071e+00 1.374000000000000021e+01 6.120000000000000107e+00 1.000000000000000000e+00 4.639999999999999680e+00
2.166000000000000014e+01 2.817999999999999972e+01 1.300000000000000000e+01 1.782000000000000028e+01 9.000000000000000000e+00 2.117999999999999972e+01
2.021999999999999886e+01 2.432000000000000028e+01 1.300000000000000000e+01 1.744000000000000128e+01 8.359999999999999432e+00 2.116000000000000014e+01
2.028000000000000114e+01 2.033999999999999986e+01 1.351999999999999957e+01 1.907999999999999829e+01 8.660000000000000142e+00 2.069999999999999929e+01
2.050000000000000000e+01 1.992000000000000171e+01 1.396000000000000085e+01 1.955999999999999872e+01 9.000000000000000000e+00 2.217999999999999972e+01
1.987999999999999901e+01 1.844000000000000128e+01 1.340000000000000036e+01 1.903999999999999915e+01 9.000000000000000000e+00 2.100000000000000000e+01
1.969999999999999929e+01 1.864000000000000057e+01 1.393999999999999950e+01 1.900000000000000000e+01 9.000000000000000000e+00 2.128000000000000114e+01
1.980000000000000071e+01 1.998000000000000043e+01 1.400000000000000000e+01 1.900000000000000000e+01 9.000000000000000000e+00 2.251999999999999957e+01
2.067999999999999972e+01 2.050000000000000000e+01 1.400000000000000000e+01 1.955999999999999872e+01 9.000000000000000000e+00 2.948000000000000043e+01
2.028000000000000114e+01 2.080000000000000071e+01 1.400000000000000000e+01 1.987999999999999901e+01 9.000000000000000000e+00 3.464000000000000057e+01
2.073999999999999844e+01 2.083999999999999986e+01 1.390000000000000036e+01 1.910000000000000142e+01 9.000000000000000000e+00 3.500000000000000000e+01
2.121999999999999886e+01 2.166000000000000014e+01 1.300000000000000000e+01 1.900000000000000000e+01 9.220000000000000639e+00 3.524000000000000199e+01
2.135999999999999943e+01 2.173999999999999844e+01 1.300000000000000000e+01 1.900000000000000000e+01 9.000000000000000000e+00 3.579999999999999716e+01
2.112000000000000099e+01 2.300000000000000000e+01 1.217999999999999972e+01 1.792000000000000171e+01 9.000000000000000000e+00 3.560000000000000142e+01
2.071999999999999886e+01 2.378000000000000114e+01 1.200000000000000000e+01 1.685999999999999943e+01 9.000000000000000000e+00 3.439999999999999858e+01
2.098000000000000043e+01 2.423999999999999844e+01 1.198000000000000043e+01 1.610000000000000142e+01 9.000000000000000000e+00 3.510000000000000142e+01
2.146000000000000085e+01 2.600000000000000000e+01 1.200000000000000000e+01 1.600000000000000000e+01 9.000000000000000000e+00 3.589999999999999858e+01
2.196000000000000085e+01 2.610000000000000142e+01 1.288000000000000078e+01 1.600000000000000000e+01 9.000000000000000000e+00 3.575999999999999801e+01
2.203999999999999915e+01 2.635999999999999943e+01 1.300000000000000000e+01 1.596000000000000085e+01 9.000000000000000000e+00 3.033999999999999986e+01
2.300000000000000000e+01 2.703999999999999915e+01 1.300000000000000000e+01 1.600000000000000000e+01 9.000000000000000000e+00 2.510000000000000142e+01
2.317999999999999972e+01 2.800000000000000000e+01 1.343999999999999950e+01 1.527999999999999936e+01 9.000000000000000000e+00 2.500000000000000000e+01
2.394000000000000128e+01 2.869999999999999929e+01 1.400000000000000000e+01 1.559999999999999964e+01 9.000000000000000000e+00 2.480000000000000071e+01
2.380000000000000071e+01 2.883999999999999986e+01 1.400000000000000000e+01 1.600000000000000000e+01 9.000000000000000000e+00 2.400000000000000000e+01
2.392000000000000171e+01 2.800000000000000000e+01 1.400000000000000000e+01 1.600000000000000000e+01 9.000000000000000000e+00 2.400000000000000000e+01
2.387999999999999901e+01 2.751999999999999957e+01 1.324000000000000021e+01 1.509999999999999964e+01 9.000000000000000000e+00 2.373999999999999844e+01
2.330000000000000071e+01 2.773999999999999844e+01 1.300000000000000000e+01 1.559999999999999964e+01 9.000000000000000000e+00 2.350000000000000000e+01
2.300000000000000000e+01 2.589999999999999858e+01 1.300000000000000000e+01 1.600000000000000000e+01 9.000000000000000000e+00 2.246000000000000085e+01
2.282000000000000028e+01 2.498000000000000043e+01 1.211999999999999922e+01 1.600000000000000000e+01 9.000000000000000000e+00 2.133999999999999986e+01
2.160000000000000142e+01 2.382000000000000028e+01 1.200000000000000000e+01 1.572000000000000064e+01 8.939999999999999503e+00 2.007999999999999829e+01
2.053999999999999915e+01 2.300000000000000000e+01 1.200000000000000000e+01 1.500000000000000000e+01 8.000000000000000000e+00 2.000000000000000000e+01
2.000000000000000000e+01 2.198000000000000043e+01 1.200000000000000000e+01 1.500000000000000000e+01 8.000000000000000000e+00 1.982000000000000028e+01
1.926000000000000156e+01 2.076000000000000156e+01 1.135999999999999943e+01 1.464000000000000057e+01 8.000000000000000000e+00 1.971999999999999886e+01
1.900000000000000000e+01 2.000000000000000000e+01 1.100000000000000000e+01 1.400000000000000000e+01 8.000000000000000000e+00 1.916000000000000014e+01
1.873999999999999844e+01 1.985999999999999943e+01 1.158000000000000007e+01 1.400000000000000000e+01 8.000000000000000000e+00 1.900000000000000000e+01
2.014000000000000057e+01 2.005999999999999872e+01 1.200000000000000000e+01 1.400000000000000000e+01 8.000000000000000000e+00 1.916000000000000014e+01
2.017999999999999972e+01 1.966000000000000014e+01 1.200000000000000000e+01 1.343999999999999950e+01 8.000000000000000000e+00 1.869999999999999929e+01
2.007999999999999829e+01 1.967999999999999972e+01 1.200000000000000000e+01 1.350000000000000000e+01 8.099999999999999645e+00 1.885999999999999943e+01
2.100000000000000000e+01 2.062000000000000099e+01 1.261999999999999922e+01 1.393999999999999950e+01 9.000000000000000000e+00 1.878000000000000114e+01
2.100000000000000000e+01 2.100000000000000000e+01 1.308000000000000007e+01 1.400000000000000000e+01 9.000000000000000000e+00 1.960000000000000142e+01
2.142000000000000171e+01 2.100000000000000000e+01 1.319999999999999929e+01 1.400000000000000000e+01 9.000000000000000000e+00 2.023999999999999844e+01
2.216000000000000014e+01 2.180000000000000071e+01 1.314000000000000057e+01 1.425999999999999979e+01 9.000000000000000000e+00 1.971999999999999886e+01
1.719999999999999929e+01 1.992000000000000171e+01 1.075000000000000000e+02 1.500000000000000000e+01 7.019999999999999574e+00 7.799999999999999822e+00
1.694000000000000128e+01 2.100000000000000000e+01 1.090400000000000063e+02 1.514000000000000057e+01 8.000000000000000000e+00 8.359999999999999432e+00
1.600000000000000000e+01 2.100000000000000000e+01 1.095600000000000023e+02 1.453999999999999915e+01 8.000000000000000000e+00 9.000000000000000000e+00
1.600000000000000000e+01 2.107999999999999829e+01 1.041400000000000006e+02 1.400000000000000000e+01 8.099999999999999645e+00 9.000000000000000000e+00
1.600000000000000000e+01 2.148000000000000043e+01 1.011200000000000045e+02 1.400000000000000000e+01 8.960000000000000853e+00 9.000000000000000000e+00
1.566000000000000014e+01 2.062000000000000099e+01 9.795999999999999375e+01 1.400000000000000000e+01 8.000000000000000000e+00 9.000000000000000000e+00
1.522000000000000064e+01 2.100000000000000000e+01 9.276000000000000512e+01 1.398000000000000043e+01 8.000000000000000000e+00 8.900000000000000355e+00
1.543999999999999950e+01 2.100000000000000000e+01 8.600000000000000000e+01 1.300000000000000000e+01 8.000000000000000000e+00 8.500000000000000000e+00
1.550000000000000000e+01 2.062000000000000099e+01 8.220000000000000284e+01 1.330000000000000071e+01 8.800000000000000711e+00 8.980000000000000426e+00
1.501999999999999957e+01 1.980000000000000071e+01 8.168000000000000682e+01 1.308000000000000007e+01 9.000000000000000000e+00 9.000000000000000000e+00
1.493999999999999950e+01 1.985999999999999943e+01 7.726000000000000512e+01 1.300000000000000000e+01 9.000000000000000000e+00 9.000000000000000000e+00
1.500000000000000000e+01 1.900000000000000000e+01 7.557999999999999829e+01 1.230000000000000071e+01 9.000000000000000000e+00 9.000000000000000000e+00
1.500000000000000000e+01 1.900000000000000000e+01 7.440000000000000568e+01 1.203999999999999915e+01 9.000000000000000000e+00 9.000000000000000000e+00
1.500000000000000000e+01 1.885999999999999943e+01 7.295999999999999375e+01 1.217999999999999972e+01 9.000000000000000000e+00 8.679999999999999716e+00
1.451999999999999957e+01 1.742000000000000171e+01 7.064000000000000057e+01 1.200000000000000000e+01 8.900000000000000355e+00 8.539999999999999147e+00
1.493999999999999950e+01 1.698000000000000043e+01 7.259999999999999432e+01 1.201999999999999957e+01 9.000000000000000000e+00 9.000000000000000000e+00
1.583999999999999986e+01 1.667999999999999972e+01 7.315999999999999659e+01 1.280000000000000071e+01 9.000000000000000000e+00 9.000000000000000000e+00
1.522000000000000064e+01 1.673999999999999844e+01 7.407999999999999829e+01 1.300000000000000000e+01 9.000000000000000000e+00 9.000000000000000000e+00
1.500000000000000000e+01 1.648000000000000043e+01 7.381999999999999318e+01 1.253999999999999915e+01 8.220000000000000639e+00 9.000000000000000000e+00
1.572000000000000064e+01 1.700000000000000000e+01 7.251999999999999602e+01 1.308000000000000007e+01 8.480000000000000426e+00 9.000000000000000000e+00
1.600000000000000000e+01 1.700000000000000000e+01 7.542000000000000171e+01 1.432000000000000028e+01 9.000000000000000000e+00 9.000000000000000000e+00
1.687999999999999901e+01 1.735999999999999943e+01 7.629999999999999716e+01 1.500000000000000000e+01 9.240000000000000213e+00 9.000000000000000000e+00
1.750000000000000000e+01 1.900000000000000000e+01 7.868000000000000682e+01 1.500000000000000000e+01 1.009999999999999964e+01 9.839999999999999858e+00
1.798000000000000043e+01 1.962000000000000099e+01 7.962000000000000455e+01 1.567999999999999972e+01 1.100000000000000000e+01 1.000000000000000000e+01
1.860000000000000142e+01 2.096000000000000085e+01 8.054000000000000625e+01 1.590000000000000036e+01 1.100000000000000000e+01 1.058000000000000007e+01
1.887999999999999901e+01 2.144000000000000128e+01 7.914000000000000057e+01 1.566000000000000014e+01 1.106000000000000050e+01 1.100000000000000000e+01
1.867999999999999972e+01 2.200000000000000000e+01 7.720000000000000284e+01 1.600000000000000000e+01 1.200000000000000000e+01 1.100000000000000000e+01
1.900000000000000000e+01 2.117999999999999972e+01 7.626000000000000512e+01 1.600000000000000000e+01 1.282000000000000028e+01 1.100000000000000000e+01
1.900000000000000000e+01 2.100000000000000000e+01 7.306000000000000227e+01 1.600000000000000000e+01 1.300000000000000000e+01 1.100000000000000000e+01
1.900000000000000000e+01 2.076000000000000156e+01 7.359999999999999432e+01 1.591999999999999993e+01 1.477999999999999936e+01 1.100000000000000000e+01
1.866000000000000014e+01 2.073999999999999844e+01 7.145999999999999375e+01 1.508000000000000007e+01 1.500000000000000000e+01 1.100000000000000000e+01
1.846000000000000085e+01 2.053999999999999915e+01 7.421999999999999886e+01 1.721999999999999886e+01 1.558000000000000007e+01 1.251999999999999957e+01
1.826000000000000156e+01 1.980000000000000071e+01 7.818000000000000682e+01 1.944000000000000128e+01 1.617999999999999972e+01 1.200000000000000000e+01
1.844000000000000128e+01 1.994000000000000128e+01 8.012000000000000455e+01 2.100000000000000000e+01 1.600000000000000000e+01 1.267999999999999972e+01
1.978000000000000114e+01 1.871999999999999886e+01 8.065999999999999659e+01 2.162000000000000099e+01 1.692000000000000171e+01 1.240000000000000036e+01
1.960000000000000142e+01 1.800000000000000000e+01 7.978000000000000114e+01 2.194000000000000128e+01 1.701999999999999957e+01 1.200000000000000000e+01
2.080000000000000071e+01 1.800000000000000000e+01 8.093999999999999773e+01 2.142000000000000171e+01 1.712000000000000099e+01 1.216000000000000014e+01
2.169999999999999929e+01 1.876000000000000156e+01 8.137999999999999545e+01 2.105999999999999872e+01 1.730000000000000071e+01 1.300000000000000000e+01
2.216000000000000014e+01 1.844000000000000128e+01 8.423999999999999488e+01 2.200000000000000000e+01 1.800000000000000000e+01 1.300000000000000000e+01
2.376000000000000156e+01 1.800000000000000000e+01 8.387999999999999545e+01 2.200000000000000000e+01 1.705999999999999872e+01 1.300000000000000000e+01
2.000000000000000000e+00 2.000000000000000000e+00 3.000000000000000000e+00 3.000000000000000000e+00 1.000000000000000000e+00 6.000000000000000000e+00
1.399999999999999911e+00 2.000000000000000000e+00 3.000000000000000000e+00 3.000000000000000000e+00 6.800000000000000488e-01 6.000000000000000000e+00
1.020000000000000018e+00 2.000000000000000000e+00 3.000000000000000000e+00 3.000000000000000000e+00 0.000000000000000000e+00 6.000000000000000000e+00
1.000000000000000000e+00 2.000000000000000000e+00 3.000000000000000000e+00 3.000000000000000000e+00 0.000000000000000000e+00 6.559999999999999609e+00
1.000000000000000000e+00 2.000000000000000000e+00 2.339999999999999858e+00 3.000000000000000000e+00 0.000000000000000000e+00 7.000000000000000000e+00
1.000000000000000000e+00 2.000000000000000000e+00 2.439999999999999947e+00 3.000000000000000000e+00 3.200000000000000067e-01 7.000000000000000000e+00
1.000000000000000000e+00 2.000000000000000000e+00 3.000000000000000000e+00 3.000000000000000000e+00 1.000000000000000000e+00 7.000000000000000000e+00
1.080000000000000071e+00 2.000000000000000000e+00 3.000000000000000000e+00 3.040000000000000036e+00 1.739999999999999991e+00 7.000000000000000000e+00
1.000000000000000000e+00 2.000000000000000000e+00 3.000000000000000000e+00 4.000000000000000000e+00 2.000000000000000000e+00 7.240000000000000213e+00
1.780000000000000027e+00 2.000000000000000000e+00 3.000000000000000000e+00 4.000000000000000000e+00 2.000000000000000000e+00 7.839999999999999858e+00
2.000000000000000000e+00 2.000000000000000000e+00 3.180000000000000160e+00 4.839999999999999858e+00 3.000000000000000000e+00 8.000000000000000000e+00
2.000000000000000000e+00 2.000000000000000000e+00 4.000000000000000000e+00 5.000000000000000000e+00 3.000000000000000000e+00 8.900000000000000355e+00
2.000000000000000000e+00 2.000000000000000000e+00 4.080000000000000071e+00 5.000000000000000000e+00 3.060000000000000053e+00 9.000000000000000000e+00
2.500000000000000000e+00 2.000000000000000000e+00 5.240000000000000213e+00 5.679999999999999716e+00 4.000000000000000000e+00 9.000000000000000000e+00
3.000000000000000000e+00 2.160000000000000142e+00 5.700000000000000178e+00 6.000000000000000000e+00 4.000000000000000000e+00 9.000000000000000000e+00
3.000000000000000000e+00 3.000000000000000000e+00 6.000000000000000000e+00 6.000000000000000000e+00 4.879999999999999893e+00 9.419999999999999929e+00
3.000000000000000000e+00 3.000000000000000000e+00 6.000000000000000000e+00 6.379999999999999893e+00 5.139999999999999680e+00 1.001999999999999957e+01
3.000000000000000000e+00 3.000000000000000000e+00 6.379999999999999893e+00 7.000000000000000000e+00 6.620000000000000107e+00 1.053999999999999915e+01
3.680000000000000160e+00 3.000000000000000000e+00 7.000000000000000000e+00 7.000000000000000000e+00 7.000000000000000000e+00 1.133999999999999986e+01
4.000000000000000000e+00 3.000000000000000000e+00 7.000000000000000000e+00 7.740000000000000213e+00 7.000000000000000000e+00 1.251999999999999957e+01
4.000000000000000000e+00 3.000000000000000000e+00 7.000000000000000000e+00 8.000000000000000000e+00 7.000000000000000000e+00 1.396000000000000085e+01
4.000000000000000000e+00 3.000000000000000000e+00 7.000000000000000000e+00 8.000000000000000000e+00 7.219999999999999751e+00 1.400000000000000000e+01
4.000000000000000000e+00 3.000000000000000000e+00 7.559999999999999609e+00 8.000000000000000000e+00 8.000000000000000000e+00 1.400000000000000000e+01
4.000000000000000000e+00 3.000000000000000000e+00 7.000000000000000000e+00 8.000000000000000000e+00 8.000000000000000000e+00 1.400000000000000000e+01
4.000000000000000000e+00 3.000000000000000000e+00 7.000000000000000000e+00 8.000000000000000000e+00 8.000000000000000000e+00 1.400000000000000000e+01
4.000000000000000000e+00 3.000000000000000000e+00 7.000000000000000000e+00 8.000000000000000000e+00 8.000000000000000000e+00 1.400000000000000000e+01
4.000000000000000000e+00 3.000000000000000000e+00 7.480000000000000426e+00 8.400000000000000355e+00 7.780000000000000249e+00 1.400000000000000000e+01
4.000000000000000000e+00 3.000000000000000000e+00 7.419999999999999929e+00 8.699999999999999289e+00 7.000000000000000000e+00 1.400000000000000000e+01
4.000000000000000000e+00 3.000000000000000000e+00 7.000000000000000000e+00 8.980000000000000426e+00 7.000000000000000000e+00 1.361999999999999922e+01
4.000000000000000000e+00 3.000000000000000000e+00 7.320000000000000284e+00 8.439999999999999503e+00 7.000000000000000000e+00 1.285999999999999943e+01
4.000000000000000000e+00 3.000000000000000000e+00 8.000000000000000000e+00 8.000000000000000000e+00 7.000000000000000000e+00 1.182000000000000028e+01
4.000000000000000000e+00 3.000000000000000000e+00 8.000000000000000000e+00 8.359999999999999432e+00 7.000000000000000000e+00 1.200000000000000000e+01
4.000000000000000000e+00 3.000000000000000000e+00 8.000000000000000000e+00 8.240000000000000213e+00 7.000000000000000000e+00 1.250000000000000000e+01
4.000000000000000000e+00 3.000000000000000000e+00 8.000000000000000000e+00 8.000000000000000000e+00 7.000000000000000000e+00 1.275999999999999979e+01
4.000000000000000000e+00 3.000000000000000000e+00 8.000000000000000000e+00 8.500000000000000000e+00 7.000000000000000000e+00 1.300000000000000000e+01
4.000000000000000000e+00 3.000000000000000000e+00 8.000000000000000000e+00 9.080000000000000071e+00 7.000000000000000000e+00 1.300000000000000000e+01
4.000000000000000000e+00 3.000000000000000000e+00 7.580000000000000071e+00 9.019999999999999574e+00 7.000000000000000000e+00 1.300000000000000000e+01
4.000000000000000000e+00 3.000000000000000000e+00 7.000000000000000000e+00 1.000000000000000000e+01 7.000000000000000000e+00 1.311999999999999922e+01
4.000000000000000000e+00 3.000000000000000000e+00 7.719999999999999751e+00 1.000000000000000000e+01 7.000000000000000000e+00 1.300000000000000000e+01
4.000000000000000000e+00 3.000000000000000000e+00 7.860000000000000320e+00 1.000000000000000000e+01 7.000000000000000000e+00 1.358000000000000007e+01
3.000000000000000000e+00 2.419999999999999929e+00 1.400000000000000000e+01 7.879999999999999893e+00 3.000000000000000000e+00 3.000000000000000000e+00
3.000000000000000000e+00 3.000000000000000000e+00 1.400000000000000000e+01 8.000000000000000000e+00 2.459999999999999964e+00 3.000000000000000000e+00
3.000000000000000000e+00 3.000000000000000000e+00 1.400000000000000000e+01 8.300000000000000711e+00 3.000000000000000000e+00 3.000000000000000000e+00
3.000000000000000000e+00 3.000000000000000000e+00 1.400000000000000000e+01 9.000000000000000000e+00 3.000000000000000000e+00 3.000000000000000000e+00
3.000000000000000000e+00 3.000000000000000000e+00 1.400000000000000000e+01 9.000000000000000000e+00 3.000000000000000000e+00 3.000000000000000000e+00
3.000000000000000000e+00 3.000000000000000000e+00 1.417999999999999972e+01 9.240000000000000213e+00 3.000000000000000000e+00 3.000000000000000000e+00
3.000000000000000000e+00 3.000000000000000000e+00 1.511999999999999922e+01 9.779999999999999361e+00 3.359999999999999876e+00 3.000000000000000000e+00
3.000000000000000000e+00 3.000000000000000000e+00 1.567999999999999972e+01 1.000000000000000000e+01 4.000000000000000000e+00 3.939999999999999947e+00
3.000000000000000000e+00 3.000000000000000000e+00 1.707999999999999829e+01 1.000000000000000000e+01 4.000000000000000000e+00 3.479999999999999982e+00
3.000000000000000000e+00 3.000000000000000000e+00 1.798000000000000043e+01 1.000000000000000000e+01 4.000000000000000000e+00 3.000000000000000000e+00
3.000000000000000000e+00 3.000000000000000000e+00 1.771999999999999886e+01 1.000000000000000000e+01 4.000000000000000000e+00 3.000000000000000000e+00
3.000000000000000000e+00 3.000000000000000000e+00 1.800000000000000000e+01 9.060000000000000497e+00 4.000000000000000000e+00 3.000000000000000000e+00
3.000000000000000000e+00 3.000000000000000000e+00 1.800000000000000000e+01 8.800000000000000711e+00 3.500000000000000000e+00 3.000000000000000000e+00
3.000000000000000000e+00 3.000000000000000000e+00 1.800000000000000000e+01 8.000000000000000000e+00 3.000000000000000000e+00 3.000000000000000000e+00
3.000000000000000000e+00 2.180000000000000160e+00 1.800000000000000000e+01 8.000000000000000000e+00 3.000000000000000000e+00 3.000000000000000000e+00
3.000000000000000000e+00 2.000000000000000000e+00 1.767999999999999972e+01 7.419999999999999929e+00 3.000000000000000000e+00 3.000000000000000000e+00
3.000000000000000000e+00 2.000000000000000000e+00 1.671999999999999886e+01 7.000000000000000000e+00 2.500000000000000000e+00 3.000000000000000000e+00
3.000000000000000000e+00 2.000000000000000000e+00 1.580000000000000071e+01 7.000000000000000000e+00 1.659999999999999920e+00 3.000000000000000000e+00
3.000000000000000000e+00 2.000000000000000000e+00 1.467999999999999972e+01 7.000000000000000000e+00 2.000000000000000000e+00 3.000000000000000000e+00
3.000000000000000000e+00 2.000000000000000000e+00 1.400000000000000000e+01 7.000000000000000000e+00 2.000000000000000000e+00 3.540000000000000036e+00
3.000000000000000000e+00 2.000000000000000000e+00 1.341999999999999993e+01 6.959999999999999964e+00 2.000000000000000000e+00 4.000000000000000000e+00
3.000000000000000000e+00 2.000000000000000000e+00 1.300000000000000000e+01 6.280000000000000249e+00 2.000000000000000000e+00 4.000000000000000000e+00
2.259999999999999787e+00 2.000000000000000000e+00 1.306000000000000050e+01 6.240000000000000213e+00 2.000000000000000000e+00 4.000000000000000000e+00
2.799999999999999822e+00 2.000000000000000000e+00 1.300000000000000000e+01 6.940000000000000391e+00 2.000000000000000000e+00 4.000000000000000000e+00
3.000000000000000000e+00 2.000000000000000000e+00 1.364000000000000057e+01 6.839999999999999858e+00 2.000000000000000000e+00 4.000000000000000000e+00
3.000000000000000000e+00 2.000000000000000000e+00 1.351999999999999957e+01 6.240000000000000213e+00 1.560000000000000053e+00 4.000000000000000000e+00
3.000000000000000000e+00 2.000000000000000000e+00 1.300000000000000000e+01 6.000000000000000000e+00 1.000000000000000000e+00 3.439999999999999947e+00
3.000000000000000000e+00 2.000000000000000000e+00 1.382000000000000028e+01 6.000000000000000000e+00 1.000000000000000000e+00 3.000000000000000000e+00
3.000000000000000000e+00 2.000000000000000000e+00 1.393999999999999950e+01 6.000000000000000000e+00 1.000000000000000000e+00 3.000000000000000000e+00
3.000000000000000000e+00 2.000000000000000000e+00 1.359999999999999964e+01 6.000000000000000000e+00 1.000000000000000000e+00 3.000000000000000000e+00
3.000000000000000000e+00 2.000000000000000000e+00 1.400000000000000000e+01 6.000000000000000000e+00 1.000000000000000000e+00 3.000000000000000000e+00
3.000000000000000000e+00 2.000000000000000000e+00 1.393999999999999950e+01 6.440000000000000391e+00 1.000000000000000000e+00 3.000000000000000000e+00
3.000000000000000000e+00 2.000000000000000000e+00 1.301999999999999957e+01 7.000000000000000000e+00 1.000000000000000000e+00 2.979999999999999982e+00
2.660000000000000142e+00 2.000000000000000000e+00 1.300000000000000000e+01 7.400000000000000355e+00 1.399999999999999911e+00 3.000000000000000000e+00
2.240000000000000213e+00 2.000000000000000000e+00 1.300000000000000000e+01 8.000000000000000000e+00 2.000000000000000000e+00 3.000000000000000000e+00
2.000000000000000000e+00 2.000000000000000000e+00 1.300000000000000000e+01 8.000000000000000000e+00 2.359999999999999876e+00 3.000000000000000000e+00
2.000000000000000000e+00 2.000000000000000000e+00 1.300000000000000000e+01 8.000000000000000000e+00 3.000000000000000000e+00 3.000000000000000000e+00
2.000000000000000000e+00 2.000000000000000000e+00 1.291999999999999993e+01 8.000000000000000000e+00 3.000000000000000000e+00 3.000000000000000000e+00
2.000000000000000000e+00 2.000000000000000000e+00 1.200000000000000000e+01 8.000000000000000000e+00 2.819999999999999840e+00 3.000000000000000000e+00
2.000000000000000000e+00 2.000000000000000000e+00 1.196000000000000085e+01 8.000000000000000000e+00 3.000000000000000000e+00 3.000000000000000000e+00
4.000000000000000000e+00 4.000000000000000000e+00 8.000000000000000000e+00 1.400000000000000000e+01 5.700000000000000178e+00 1.933999999999999986e+01
4.000000000000000000e+00 4.000000000000000000e+00 8.560000000000000497e+00 1.400000000000000000e+01 6.000000000000000000e+00 2.000000000000000000e+01
4.000000000000000000e+00 4.000000000000000000e+00 9.000000000000000000e+00 1.385999999999999943e+01 6.000000000000000000e+00 2.057999999999999829e+01
4.000000000000000000e+00 4.000000000000000000e+00 9.000000000000000000e+00 1.351999999999999957e+01 6.000000000000000000e+00 2.003999999999999915e+01
4.000000000000000000e+00 4.000000000000000000e+00 9.000000000000000000e+00 1.388000000000000078e+01 6.000000000000000000e+00 2.078000000000000114e+01
4.000000000000000000e+00 4.000000000000000000e+00 9.019999999999999574e+00 1.400000000000000000e+01 6.000000000000000000e+00 2.055999999999999872e+01
4.000000000000000000e+00 4.000000000000000000e+00 1.000000000000000000e+01 1.400000000000000000e+01 6.299999999999999822e+00 2.000000000000000000e+01
4.500000000000000000e+00 4.000000000000000000e+00 1.000000000000000000e+01 1.400000000000000000e+01 6.400000000000000355e+00 2.078000000000000114e+01
5.000000000000000000e+00 4.000000000000000000e+00 1.059999999999999964e+01 1.400000000000000000e+01 6.000000000000000000e+00 2.051999999999999957e+01
5.000000000000000000e+00 4.000000000000000000e+00 1.014000000000000057e+01 1.400000000000000000e+01 6.000000000000000000e+00 2.100000000000000000e+01
4.620000000000000107e+00 5.000000000000000000e+00 1.083999999999999986e+01 1.400000000000000000e+01 6.000000000000000000e+00 2.037999999999999901e+01
4.000000000000000000e+00 4.360000000000000320e+00 1.025999999999999979e+01 1.400000000000000000e+01 6.000000000000000000e+00 2.000000000000000000e+01
4.000000000000000000e+00 4.900000000000000355e+00 1.072000000000000064e+01 1.433999999999999986e+01 6.000000000000000000e+00 1.942000000000000171e+01
4.139999999999999680e+00 5.000000000000000000e+00 1.100000000000000000e+01 1.508000000000000007e+01 6.879999999999999893e+00 2.000000000000000000e+01
4.000000000000000000e+00 5.000000000000000000e+00 1.100000000000000000e+01 1.500000000000000000e+01 6.719999999999999751e+00 1.907999999999999829e+01
4.620000000000000107e+00 5.000000000000000000e+00 1.122000000000000064e+01 1.535999999999999943e+01 6.480000000000000426e+00 1.900000000000000000e+01
5.000000000000000000e+00 5.000000000000000000e+00 1.100000000000000000e+01 1.600000000000000000e+01 7.000000000000000000e+00 2.021999999999999886e+01
5.000000000000000000e+00 5.000000000000000000e+00 1.140000000000000036e+01 1.687999999999999901e+01 7.900000000000000355e+00 1.985999999999999943e+01
5.000000000000000000e+00 5.000000000000000000e+00 1.100000000000000000e+01 1.676000000000000156e+01 8.000000000000000000e+00 2.164000000000000057e+01
5.000000000000000000e+00 5.000000000000000000e+00 1.100000000000000000e+01 1.700000000000000000e+01 8.000000000000000000e+00 2.214000000000000057e+01
5.000000000000000000e+00 5.000000000000000000e+00 1.180000000000000071e+01 1.723999999999999844e+01 8.380000000000000782e+00 2.300000000000000000e+01
5.000000000000000000e+00 5.919999999999999929e+00 1.200000000000000000e+01 1.812000000000000099e+01 9.000000000000000000e+00 2.282000000000000028e+01
5.000000000000000000e+00 6.000000000000000000e+00 1.200000000000000000e+01 1.889999999999999858e+01 1.000000000000000000e+01 2.287999999999999901e+01
5.000000000000000000e+00 6.000000000000000000e+00 1.251999999999999957e+01 1.819999999999999929e+01 1.000000000000000000e+01 2.244000000000000128e+01
5.000000000000000000e+00 6.000000000000000000e+00 1.266000000000000014e+01 1.873999999999999844e+01 1.000000000000000000e+01 2.380000000000000071e+01
5.000000000000000000e+00 6.000000000000000000e+00 1.214000000000000057e+01 1.919999999999999929e+01 1.000000000000000000e+01 2.400000000000000000e+01
5.000000000000000000e+00 6.000000000000000000e+00 1.227999999999999936e+01 2.033999999999999986e+01 1.000000000000000000e+01 2.333999999999999986e+01
5.000000000000000000e+00 6.000000000000000000e+00 1.200000000000000000e+01 2.039999999999999858e+01 9.619999999999999218e+00 2.385999999999999943e+01
5.000000000000000000e+00 6.000000000000000000e+00 1.274000000000000021e+01 2.180000000000000071e+01 9.480000000000000426e+00 2.214000000000000057e+01
5.000000000000000000e+00 6.000000000000000000e+00 1.267999999999999972e+01 2.260000000000000142e+01 9.519999999999999574e+00 2.171999999999999886e+01
5.000000000000000000e+00 5.940000000000000391e+00 1.300000000000000000e+01 2.289999999999999858e+01 1.000000000000000000e+01 2.100000000000000000e+01
5.000000000000000000e+00 5.679999999999999716e+00 1.300000000000000000e+01 2.314000000000000057e+01 9.339999999999999858e+00 2.180000000000000071e+01
5.000000000000000000e+00 6.000000000000000000e+00 1.300000000000000000e+01 2.433999999999999986e+01 9.660000000000000142e+00 2.276000000000000156e+01
5.000000000000000000e+00 6.000000000000000000e+00 1.300000000000000000e+01 2.551999999999999957e+01 9.939999999999999503e+00 2.339999999999999858e+01
5.000000000000000000e+00 6.000000000000000000e+00 1.288000000000000078e+01 2.607999999999999829e+01 1.000000000000000000e+01 2.301999999999999957e+01
5.000000000000000000e+00 5.799999999999999822e+00 1.200000000000000000e+01 2.580000000000000071e+01 1.000000000000000000e+01 2.300000000000000000e+01
5.000000000000000000e+00 5.000000000000000000e+00 1.141999999999999993e+01 2.500000000000000000e+01 9.259999999999999787e+00 2.300000000000000000e+01
4.040000000000000036e+00 5.000000000000000000e+00 1.100000000000000000e+01 2.432000000000000028e+01 9.000000000000000000e+00 2.205999999999999872e+01
4.000000000000000000e+00 5.000000000000000000e+00 1.091999999999999993e+01 2.251999999999999957e+01 9.000000000000000000e+00 2.100000000000000000e+01
4.000000000000000000e+00 5.000000000000000000e+00 9.359999999999999432e+00 2.135999999999999943e+01 8.300000000000000711e+00 2.012000000000000099e+01
1.000000000000000000e+00 2.000000000000000000e+00 2.000000000000000000e+00 3.140000000000000124e+00 0.000000000000000000e+00 4.000000000000000000e+00
1.000000000000000000e+00 2.000000000000000000e+00 2.000000000000000000e+00 4.000000000000000000e+00 0.000000000000000000e+00 4.379999999999999893e+00
1.000000000000000000e+00 2.000000000000000000e+00 2.060000000000000053e+00 4.580000000000000071e+00 1.439999999999999947e+00 5.000000000000000000e+00
1.000000000000000000e+00 2.000000000000000000e+00 3.000000000000000000e+00 6.799999999999999822e+00 4.000000000000000000e+00 5.000000000000000000e+00
1.000000000000000000e+00 2.000000000000000000e+00 3.000000000000000000e+00 7.000000000000000000e+00 4.000000000000000000e+00 5.000000000000000000e+00
1.239999999999999991e+00 2.000000000000000000e+00 3.000000000000000000e+00 7.480000000000000426e+00 4.480000000000000426e+00 5.259999999999999787e+00
2.000000000000000000e+00 2.000000000000000000e+00 3.000000000000000000e+00 8.919999999999999929e+00 5.000000000000000000e+00 6.299999999999999822e+00
2.000000000000000000e+00 2.000000000000000000e+00 3.000000000000000000e+00 8.640000000000000568e+00 5.000000000000000000e+00 7.000000000000000000e+00
2.000000000000000000e+00 2.000000000000000000e+00 3.000000000000000000e+00 8.000000000000000000e+00 5.000000000000000000e+00 6.059999999999999609e+00
2.000000000000000000e+00 2.000000000000000000e+00 3.000000000000000000e+00 8.439999999999999503e+00 5.000000000000000000e+00 6.000000000000000000e+00
2.000000000000000000e+00 2.000000000000000000e+00 3.000000000000000000e+00 9.000000000000000000e+00 5.000000000000000000e+00 6.000000000000000000e+00
2.000000000000000000e+00 2.000000000000000000e+00 3.000000000000000000e+00 9.000000000000000000e+00 5.000000000000000000e+00 6.000000000000000000e+00
1.739999999999999991e+00 2.000000000000000000e+00 3.000000000000000000e+00 8.640000000000000568e+00 4.639999999999999680e+00 5.540000000000000036e+00
1.320000000000000062e+00 2.000000000000000000e+00 3.000000000000000000e+00 7.000000000000000000e+00 4.000000000000000000e+00 5.000000000000000000e+00
2.000000000000000000e+00 2.000000000000000000e+00 3.000000000000000000e+00 7.000000000000000000e+00 4.000000000000000000e+00 5.000000000000000000e+00
2.000000000000000000e+00 2.000000000000000000e+00 2.299999999999999822e+00 5.980000000000000426e+00 2.000000000000000000e+00 5.000000000000000000e+00
2.620000000000000107e+00 2.000000000000000000e+00 2.000000000000000000e+00 4.000000000000000000e+00 0.000000000000000000e+00 3.180000000000000160e+00
3.000000000000000000e+00 2.000000000000000000e+00 2.000000000000000000e+00 4.700000000000000178e+00 0.000000000000000000e+00 1.040000000000000036e+00
3.000000000000000000e+00 2.000000000000000000e+00 2.000000000000000000e+00 5.000000000000000000e+00 0.000000000000000000e+00 2.279999999999999805e+00
3.000000000000000000e+00 2.000000000000000000e+00 2.000000000000000000e+00 5.000000000000000000e+00 0.000000000000000000e+00 3.000000000000000000e+00
3.000000000000000000e+00 2.000000000000000000e+00 2.000000000000000000e+00 4.980000000000000426e+00 0.000000000000000000e+00 3.000000000000000000e+00
3.000000000000000000e+00 2.000000000000000000e+00 2.000000000000000000e+00 4.000000000000000000e+00 0.000000000000000000e+00 3.000000000000000000e+00
3.000000000000000000e+00 2.000000000000000000e+00 2.000000000000000000e+00 4.000000000000000000e+00 0.000000000000000000e+00 3.000000000000000000e+00
2.439999999999999947e+00 2.000000000000000000e+00 2.000000000000000000e+00 4.839999999999999858e+00 0.000000000000000000e+00 3.000000000000000000e+00
2.000000000000000000e+00 2.000000000000000000e+00 2.220000000000000195e+00 5.000000000000000000e+00 0.000000000000000000e+00 3.000000000000000000e+00
1.879999999999999893e+00 2.000000000000000000e+00 2.040000000000000036e+00 5.000000000000000000e+00 0.000000000000000000e+00 3.000000000000000000e+00
1.000000000000000000e+00 2.000000000000000000e+00 2.839999999999999858e+00 4.839999999999999858e+00 0.000000000000000000e+00 3.000000000000000000e+00
1.000000000000000000e+00 2.000000000000000000e+00 2.180000000000000160e+00 4.000000000000000000e+00 0.000000000000000000e+00 3.000000000000000000e+00
1.000000000000000000e+00 2.000000000000000000e+00 2.000000000000000000e+00 3.160000000000000142e+00 0.000000000000000000e+00 2.520000000000000018e+00
1.000000000000000000e+00 2.000000000000000000e+00 2.000000000000000000e+00 3.000000000000000000e+00 0.000000000000000000e+00 1.760000000000000009e+00
1.000000000000000000e+00 2.000000000000000000e+00 2.000000000000000000e+00 3.000000000000000000e+00 0.000000000000000000e+00 1.000000000000000000e+00
1.760000000000000009e+00 2.000000000000000000e+00 2.000000000000000000e+00 3.000000000000000000e+00 0.000000000000000000e+00 1.000000000000000000e+00
2.000000000000000000e+00 2.000000000000000000e+00 2.000000000000000000e+00 3.000000000000000000e+00 6.800000000000000488e-01 1.000000000000000000e+00
2.000000000000000000e+00 2.000000000000000000e+00 2.000000000000000000e+00 3.000000000000000000e+00 2.000000000000000000e+00 1.600000000000000089e+00
2.000000000000000000e+00 2.000000000000000000e+00 2.000000000000000000e+00 3.000000000000000000e+00 2.000000000000000000e+00 2.339999999999999858e+00
2.000000000000000000e+00 2.000000000000000000e+00 2.000000000000000000e+00 3.000000000000000000e+00 2.000000000000000000e+00 2.399999999999999911e+00
2.000000000000000000e+00 2.000000000000000000e+00 2.000000000000000000e+00 4.000000000000000000e+00 2.000000000000000000e+00 2.859999999999999876e+00
2.000000000000000000e+00 2.000000000000000000e+00 2.000000000000000000e+00 4.419999999999999929e+00 2.000000000000000000e+00 4.000000000000000000e+00
2.000000000000000000e+00 2.000000000000000000e+00 2.000000000000000000e+00 5.000000000000000000e+00 2.000000000000000000e+00 4.000000000000000000e+00
2.000000000000000000e+00 2.000000000000000000e+00 2.259999999999999787e+00 5.000000000000000000e+00 2.000000000000000000e+00 4.000000000000000000e+00
4.000000000000000000e+00 3.000000000000000000e+00 1.600000000000000000e+01 9.000000000000000000e+00 3.759999999999999787e+00 3.700000000000000178e+00
4.000000000000000000e+00 3.000000000000000000e+00 1.600000000000000000e+01 9.000000000000000000e+00 3.419999999999999929e+00 3.000000000000000000e+00
4.000000000000000000e+00 3.000000000000000000e+00 1.567999999999999972e+01 8.800000000000000711e+00 3.000000000000000000e+00 3.000000000000000000e+00
4.000000000000000000e+00 3.000000000000000000e+00 1.541999999999999993e+01 8.759999999999999787e+00 3.000000000000000000e+00 3.000000000000000000e+00
4.000000000000000000e+00 3.000000000000000000e+00 1.500000000000000000e+01 8.259999999999999787e+00 3.000000000000000000e+00 3.000000000000000000e+00
4.000000000000000000e+00 3.000000000000000000e+00 1.493999999999999950e+01 9.000000000000000000e+00 3.000000000000000000e+00 3.000000000000000000e+00
4.000000000000000000e+00 3.000000000000000000e+00 1.422000000000000064e+01 9.000000000000000000e+00 3.000000000000000000e+00 3.000000000000000000e+00
4.000000000000000000e+00 3.000000000000000000e+00 1.485999999999999943e+01 9.000000000000000000e+00 3.000000000000000000e+00 3.000000000000000000e+00
4.000000000000000000e+00 3.000000000000000000e+00 1.500000000000000000e+01 9.000000000000000000e+00 3.000000000000000000e+00 3.000000000000000000e+00
4.000000000000000000e+00 3.000000000000000000e+00 1.500000000000000000e+01 9.000000000000000000e+00 3.000000000000000000e+00 3.000000000000000000e+00
4.000000000000000000e+00 3.000000000000000000e+00 1.569999999999999929e+01 8.919999999999999929e+00 3.000000000000000000e+00 3.000000000000000000e+00
4.000000000000000000e+00 3.000000000000000000e+00 1.600000000000000000e+01 8.000000000000000000e+00 3.000000000000000000e+00 3.000000000000000000e+00
4.000000000000000000e+00 3.000000000000000000e+00 1.600000000000000000e+01 8.000000000000000000e+00 3.000000000000000000e+00 3.000000000000000000e+00
4.000000000000000000e+00 3.000000000000000000e+00 1.600000000000000000e+01 8.000000000000000000e+00 2.600000000000000089e+00 3.000000000000000000e+00
3.560000000000000053e+00 3.000000000000000000e+00 1.600000000000000000e+01 7.719999999999999751e+00 2.000000000000000000e+00 3.000000000000000000e+00
3.259999999999999787e+00 2.020000000000000018e+00 1.583999999999999986e+01 7.000000000000000000e+00 2.000000000000000000e+00 3.000000000000000000e+00
3.000000000000000000e+00 2.000000000000000000e+00 1.600000000000000000e+01 7.000000000000000000e+00 2.000000000000000000e+00 3.000000000000000000e+00
3.000000000000000000e+00 2.000000000000000000e+00 1.506000000000000050e+01 7.000000000000000000e+00 2.000000000000000000e+00 3.000000000000000000e+00
3.000000000000000000e+00 2.000000000000000000e+00 1.500000000000000000e+01 7.000000000000000000e+00 1.800000000000000044e+00 3.000000000000000000e+00
3.000000000000000000e+00 2.000000000000000000e+00 1.496000000000000085e+01 6.679999999999999716e+00 1.000000000000000000e+00 3.000000000000000000e+00
2.799999999999999822e+00 2.000000000000000000e+00 1.443999999999999950e+01 6.200000000000000178e+00 1.000000000000000000e+00 3.000000000000000000e+00
3.000000000000000000e+00 2.000000000000000000e+00 1.472000000000000064e+01 6.740000000000000213e+00 1.000000000000000000e+00 2.359999999999999876e+00
3.000000000000000000e+00 2.000000000000000000e+00 1.480000000000000071e+01 6.000000000000000000e+00 1.000000000000000000e+00 2.000000000000000000e+00
2.700000000000000178e+00 2.000000000000000000e+00 1.500000000000000000e+01 6.000000000000000000e+00 1.000000000000000000e+00 2.000000000000000000e+00
2.859999999999999876e+00 2.000000000000000000e+00 1.500000000000000000e+01 6.000000000000000000e+00 1.000000000000000000e+00 2.000000000000000000e+00
2.000000000000000000e+00 2.000000000000000000e+00 1.500000000000000000e+01 6.000000000000000000e+00 1.000000000000000000e+00 2.000000000000000000e+00
2.000000000000000000e+00 2.000000000000000000e+00 1.440000000000000036e+01 6.000000000000000000e+00 1.000000000000000000e+00 2.000000000000000000e+00
2.000000000000000000e+00 2.000000000000000000e+00 1.400000000000000000e+01 6.000000000000000000e+00 1.000000000000000000e+00 2.000000000000000000e+00
2.000000000000000000e+00 2.000000000000000000e+00 1.400000000000000000e+01 6.000000000000000000e+00 1.000000000000000000e+00 2.000000000000000000e+00
2.319999999999999840e+00 2.000000000000000000e+00 1.400000000000000000e+01 6.000000000000000000e+00 1.000000000000000000e+00 2.000000000000000000e+00
2.640000000000000124e+00 2.000000000000000000e+00 1.383999999999999986e+01 6.000000000000000000e+00 1.000000000000000000e+00 2.000000000000000000e+00
2.000000000000000000e+00 2.000000000000000000e+00 1.241999999999999993e+01 6.000000000000000000e+00 1.000000000000000000e+00 2.000000000000000000e+00
2.000000000000000000e+00 2.000000000000000000e+00 1.243999999999999950e+01 6.000000000000000000e+00 1.000000000000000000e+00 2.000000000000000000e+00
2.259999999999999787e+00 2.000000000000000000e+00 1.266000000000000014e+01 6.000000000000000000e+00 1.139999999999999902e+00 2.000000000000000000e+00
3.000000000000000000e+00 2.000000000000000000e+00 1.308000000000000007e+01 6.000000000000000000e+00 1.000000000000000000e+00 2.000000000000000000e+00
3.000000000000000000e+00 2.000000000000000000e+00 1.400000000000000000e+01 6.480000000000000426e+00 1.000000000000000000e+00 2.000000000000000000e+00
3.000000000000000000e+00 2.000000000000000000e+00 1.408000000000000007e+01 7.000000000000000000e+00 1.000000000000000000e+00 2.000000000000000000e+00
3.000000000000000000e+00 2.000000000000000000e+00 1.500000000000000000e+01 7.000000000000000000e+00 1.000000000000000000e+00 2.000000000000000000e+00
3.000000000000000000e+00 2.000000000000000000e+00 1.516000000000000014e+01 7.000000000000000000e+00 1.000000000000000000e+00 2.000000000000000000e+00
3.000000000000000000e+00 2.000000000000000000e+00 1.516000000000000014e+01 7.000000000000000000e+00 1.000000000000000000e+00 2.220000000000000195e+00
1.000000000000000000e+00 2.000000000000000000e+00 2.000000000000000000e+00 2.000000000000000000e+00 0.000000000000000000e+00 2.000000000000000000e+00
1.000000000000000000e+00 2.000000000000000000e+00 2.000000000000000000e+00 2.000000000000000000e+00 0.000000000000000000e+00 2.000000000000000000e+00
1.000000000000000000e+00 2.000000000000000000e+00 2.000000000000000000e+00 2.000000000000000000e+00 0.000000000000000000e+00 2.000000000000000000e+00
1.000000000000000000e+00 2.000000000000000000e+00 2.000000000000000000e+00 2.000000000000000000e+00 0.000000000000000000e+00 2.000000000000000000e+00
1.000000000000000000e+00 2.000000000000000000e+00 2.000000000000000000e+00 2.000000000000000000e+00 0.000000000000000000e+00 2.000000000000000000e+00
1.000000000000000000e+00 2.000000000000000000e+00 2.000000000000000000e+00 2.000000000000000000e+00 0.000000000000000000e+00 2.000000000000000000e+00
1.000000000000000000e+00 2.000000000000000000e+00 2.000000000000000000e+00 2.000000000000000000e+00 0.000000000000000000e+00 2.000000000000000000e+00
1.000000000000000000e+00 2.000000000000000000e+00 2.000000000000000000e+00 2.000000000000000000e+00 0.000000000000000000e+00 2.000000000000000000e+00
1.000000000000000000e+00 2.000000000000000000e+00 2.000000000000000000e+00 2.000000000000000000e+00 0.000000000000000000e+00 2.000000000000000000e+00
1.000000000000000000e+00 2.000000000000000000e+00 2.000000000000000000e+00 2.000000000000000000e+00 0.000000000000000000e+00 2.000000000000000000e+00
1.000000000000000000e+00 2.000000000000000000e+00 2.000000000000000000e+00 2.000000000000000000e+00 0.000000000000000000e+00 2.000000000000000000e+00
1.000000000000000000e+00 2.000000000000000000e+00 2.000000000000000000e+00 2.000000000000000000e+00 0.000000000000000000e+00 2.000000000000000000e+00
1.000000000000000000e+00 2.000000000000000000e+00 2.000000000000000000e+00 2.000000000000000000e+00 0.000000000000000000e+00 2.000000000000000000e+00
1.000000000000000000e+00 2.000000000000000000e+00 2.000000000000000000e+00 2.000000000000000000e+00 0.000000000000000000e+00 2.000000000000000000e+00
1.000000000000000000e+00 2.000000000000000000e+00 2.000000000000000000e+00 2.000000000000000000e+00 0.000000000000000000e+00 2.000000000000000000e+00
1.000000000000000000e+00 2.000000000000000000e+00 2.000000000000000000e+00 2.000000000000000000e+00 0.000000000000000000e+00 2.000000000000000000e+00
1.000000000000000000e+00 2.000000000000000000e+00 2.000000000000000000e+00 2.000000000000000000e+00 0.000000000000000000e+00 2.000000000000000000e+00
1.000000000000000000e+00 2.000000000000000000e+00 2.000000000000000000e+00 2.000000000000000000e+00 0.000000000000000000e+00 2.000000000000000000e+00
1.000000000000000000e+00 2.000000000000000000e+00 2.000000000000000000e+00 2.000000000000000000e+00 0.000000000000000000e+00 2.000000000000000000e+00
1.000000000000000000e+00 2.000000000000000000e+00 2.000000000000000000e+00 2.000000000000000000e+00 0.000000000000000000e+00 2.040000000000000036e+00
1.000000000000000000e+00 2.000000000000000000e+00 2.000000000000000000e+00 2.000000000000000000e+00 0.000000000000000000e+00 2.000000000000000000e+00
1.000000000000000000e+00 2.000000000000000000e+00 2.000000000000000000e+00 2.000000000000000000e+00 0.000000000000000000e+00 2.000000000000000000e+00
1.000000000000000000e+00 2.000000000000000000e+00 2.000000000000000000e+00 2.000000000000000000e+00 0.000000000000000000e+00 2.000000000000000000e+00
1.000000000000000000e+00 2.000000000000000000e+00 2.000000000000000000e+00 2.000000000000000000e+00 0.000000000000000000e+00 2.000000000000000000e+00
1.000000000000000000e+00 2.000000000000000000e+00 2.000000000000000000e+00 2.000000000000000000e+00 0.000000000000000000e+00 2.000000000000000000e+00
1.000000000000000000e+00 2.000000000000000000e+00 2.000000000000000000e+00 2.000000000000000000e+00 0.000000000000000000e+00 2.000000000000000000e+00
1.000000000000000000e+00 1.879999999999999893e+00 2.000000000000000000e+00 2.000000000000000000e+00 0.000000000000000000e+00 2.000000000000000000e+00
1.000000000000000000e+00 1.699999999999999956e+00 2.000000000000000000e+00 2.000000000000000000e+00 0.000000000000000000e+00 2.000000000000000000e+00
1.000000000000000000e+00 1.760000000000000009e+00 2.000000000000000000e+00 2.000000000000000000e+00 0.000000000000000000e+00 2.000000000000000000e+00
1.000000000000000000e+00 1.260000000000000009e+00 2.000000000000000000e+00 2.000000000000000000e+00 0.000000000000000000e+00 2.000000000000000000e+00
1.000000000000000000e+00 1.080000000000000071e+00 2.000000000000000000e+00 2.000000000000000000e+00 0.000000000000000000e+00 2.000000000000000000e+00
1.000000000000000000e+00 1.459999999999999964e+00 2.000000000000000000e+00 2.000000000000000000e+00 0.000000000000000000e+00 2.000000000000000000e+00
1.000000000000000000e+00 2.000000000000000000e+00 2.000000000000000000e+00 2.000000000000000000e+00 0.000000000000000000e+00 2.000000000000000000e+00
1.000000000000000000e+00 2.000000000000000000e+00 2.000000000000000000e+00 2.000000000000000000e+00 0.000000000000000000e+00 2.000000000000000000e+00
1.000000000000000000e+00 2.000000000000000000e+00 2.000000000000000000e+00 2.000000000000000000e+00 0.000000000000000000e+00 2.000000000000000000e+00
1.000000000000000000e+00 2.000000000000000000e+00 2.000000000000000000e+00 2.000000000000000000e+00 0.000000000000000000e+00 2.000000000000000000e+00
1.000000000000000000e+00 2.000000000000000000e+00 2.000000000000000000e+00 2.000000000000000000e+00 0.000000000000000000e+00 2.000000000000000000e+00
1.000000000000000000e+00 2.000000000000000000e+00 2.000000000000000000e+00 2.000000000000000000e+00 0.000000000000000000e+00 2.000000000000000000e+00
1.000000000000000000e+00 2.000000000000000000e+00 2.000000000000000000e+00 2.000000000000000000e+00 0.000000000000000000e+00 2.000000000000000000e+00
1.000000000000000000e+00 2.000000000000000000e+00 2.000000000000000000e+00 2.000000000000000000e+00 0.000000000000000000e+00 2.000000000000000000e+00
1.750000000000000000e+01 1.288000000000000078e+01 1.059399999999999977e+02 1.400000000000000000e+01 7.000000000000000000e+00 5.040000000000000036e+00
1.800000000000000000e+01 1.325999999999999979e+01 1.091599999999999966e+02 1.491999999999999993e+01 7.000000000000000000e+00 6.000000000000000000e+00
1.669999999999999929e+01 1.400000000000000000e+01 1.107199999999999989e+02 1.482000000000000028e+01 7.000000000000000000e+00 6.400000000000000355e+00
1.603999999999999915e+01 1.400000000000000000e+01 1.093799999999999955e+02 1.401999999999999957e+01 7.959999999999999964e+00 7.000000000000000000e+00
1.572000000000000064e+01 1.453999999999999915e+01 1.052000000000000028e+02 1.366000000000000014e+01 8.000000000000000000e+00 7.059999999999999609e+00
1.590000000000000036e+01 1.500000000000000000e+01 1.006800000000000068e+02 1.359999999999999964e+01 8.000000000000000000e+00 8.000000000000000000e+00
1.509999999999999964e+01 1.472000000000000064e+01 9.707999999999999829e+01 1.466000000000000014e+01 8.699999999999999289e+00 8.000000000000000000e+00
1.446000000000000085e+01 1.500000000000000000e+01 9.228000000000000114e+01 1.676000000000000156e+01 9.000000000000000000e+00 8.000000000000000000e+00
1.401999999999999957e+01 1.500000000000000000e+01 8.554000000000000625e+01 1.687999999999999901e+01 9.720000000000000639e+00 8.000000000000000000e+00
1.422000000000000064e+01 1.443999999999999950e+01 8.493999999999999773e+01 1.700000000000000000e+01 1.000000000000000000e+01 8.000000000000000000e+00
1.430000000000000071e+01 1.400000000000000000e+01 8.451999999999999602e+01 1.700000000000000000e+01 1.053999999999999915e+01 8.000000000000000000e+00
1.400000000000000000e+01 1.400000000000000000e+01 8.015999999999999659e+01 1.789999999999999858e+01 1.100000000000000000e+01 8.000000000000000000e+00
1.400000000000000000e+01 1.388000000000000078e+01 7.651999999999999602e+01 1.780000000000000071e+01 1.100000000000000000e+01 8.000000000000000000e+00
1.377999999999999936e+01 1.385999999999999943e+01 7.381999999999999318e+01 1.800000000000000000e+01 1.100000000000000000e+01 7.639999999999999680e+00
1.319999999999999929e+01 1.300000000000000000e+01 7.095999999999999375e+01 1.800000000000000000e+01 1.100000000000000000e+01 7.000000000000000000e+00
1.300000000000000000e+01 1.277999999999999936e+01 6.792000000000000171e+01 1.719999999999999929e+01 1.091999999999999993e+01 7.000000000000000000e+00
1.300000000000000000e+01 1.216000000000000014e+01 6.473999999999999488e+01 1.614000000000000057e+01 1.035999999999999943e+01 7.000000000000000000e+00
1.300000000000000000e+01 1.200000000000000000e+01 6.352000000000000313e+01 1.411999999999999922e+01 1.000000000000000000e+01 7.000000000000000000e+00
1.217999999999999972e+01 1.200000000000000000e+01 6.282000000000000028e+01 1.400000000000000000e+01 1.014000000000000057e+01 6.740000000000000213e+00
1.200000000000000000e+01 1.200000000000000000e+01 6.120000000000000284e+01 1.400000000000000000e+01 1.027999999999999936e+01 6.419999999999999929e+00
1.200000000000000000e+01 1.200000000000000000e+01 5.838000000000000256e+01 1.400000000000000000e+01 1.016000000000000014e+01 6.000000000000000000e+00
1.101999999999999957e+01 1.233999999999999986e+01 5.910000000000000142e+01 1.300000000000000000e+01 1.001999999999999957e+01 6.000000000000000000e+00
1.082000000000000028e+01 1.300000000000000000e+01 5.839999999999999858e+01 1.333999999999999986e+01 1.001999999999999957e+01 6.000000000000000000e+00
1.088000000000000078e+01 1.241999999999999993e+01 5.824000000000000199e+01 1.393999999999999950e+01 1.058000000000000007e+01 6.000000000000000000e+00
1.000000000000000000e+01 1.274000000000000021e+01 5.738000000000000256e+01 1.400000000000000000e+01 1.100000000000000000e+01 6.000000000000000000e+00
1.000000000000000000e+01 1.300000000000000000e+01 6.153999999999999915e+01 1.443999999999999950e+01 1.100000000000000000e+01 6.519999999999999574e+00
1.000000000000000000e+01 1.300000000000000000e+01 6.361999999999999744e+01 1.493999999999999950e+01 1.017999999999999972e+01 7.000000000000000000e+00
1.000000000000000000e+01 1.300000000000000000e+01 6.315999999999999659e+01 1.419999999999999929e+01 1.074000000000000021e+01 7.000000000000000000e+00
1.009999999999999964e+01 1.300000000000000000e+01 6.365999999999999659e+01 1.400000000000000000e+01 1.016000000000000014e+01 7.339999999999999858e+00
1.069999999999999929e+01 1.300000000000000000e+01 6.371999999999999886e+01 1.400000000000000000e+01 1.019999999999999929e+01 8.000000000000000000e+00
1.100000000000000000e+01 1.306000000000000050e+01 6.311999999999999744e+01 1.380000000000000071e+01 1.000000000000000000e+01 8.000000000000000000e+00
1.100000000000000000e+01 1.306000000000000050e+01 6.293999999999999773e+01 1.300000000000000000e+01 1.000000000000000000e+01 8.000000000000000000e+00
1.100000000000000000e+01 1.300000000000000000e+01 6.239999999999999858e+01 1.300000000000000000e+01 1.000000000000000000e+01 8.000000000000000000e+00
1.100000000000000000e+01 1.300000000000000000e+01 6.115999999999999659e+01 1.261999999999999922e+01 9.419999999999999929e+00 8.000000000000000000e+00
1.046000000000000085e+01 1.300000000000000000e+01 6.292000000000000171e+01 1.200000000000000000e+01 9.560000000000000497e+00 8.000000000000000000e+00
1.025999999999999979e+01 1.230000000000000071e+01 6.134000000000000341e+01 1.159999999999999964e+01 9.599999999999999645e+00 8.000000000000000000e+00
1.033999999999999986e+01 1.216000000000000014e+01 5.750000000000000000e+01 1.100000000000000000e+01 9.000000000000000000e+00 7.540000000000000036e+00
1.008000000000000007e+01 1.200000000000000000e+01 5.600000000000000000e+01 1.100000000000000000e+01 9.000000000000000000e+00 7.000000000000000000e+00
1.000000000000000000e+01 1.158000000000000007e+01 5.396000000000000085e+01 1.088000000000000078e+01 8.820000000000000284e+00 7.000000000000000000e+00
1.000000000000000000e+01 1.135999999999999943e+01 5.235999999999999943e+01 1.096000000000000085e+01 8.000000000000000000e+00 7.000000000000000000e+00
0.000000000000000000e+00 2.000000000000000000e+00 1.000000000000000000e+00 1.000000000000000000e+00 0.000000000000000000e+00 1.000000000000000000e+00
0.000000000000000000e+00 1.520000000000000018e+00 1.000000000000000000e+00 1.000000000000000000e+00 0.000000000000000000e+00 1.000000000000000000e+00
0.000000000000000000e+00 1.000000000000000000e+00 1.000000000000000000e+00 1.000000000000000000e+00 0.000000000000000000e+00 1.000000000000000000e+00
0.000000000000000000e+00 1.000000000000000000e+00 1.340000000000000080e+00 1.000000000000000000e+00 0.000000000000000000e+00 1.000000000000000000e+00
0.000000000000000000e+00 1.000000000000000000e+00 1.919999999999999929e+00 1.000000000000000000e+00 0.000000000000000000e+00 1.000000000000000000e+00
0.000000000000000000e+00 1.000000000000000000e+00 1.000000000000000000e+00 1.000000000000000000e+00 0.000000000000000000e+00 1.000000000000000000e+00
0.000000000000000000e+00 1.000000000000000000e+00 1.100000000000000089e+00 1.000000000000000000e+00 0.000000000000000000e+00 1.000000000000000000e+00
0.000000000000000000e+00 1.000000000000000000e+00 2.000000000000000000e+00 1.000000000000000000e+00 0.000000000000000000e+00 1.000000000000000000e+00
0.000000000000000000e+00 1.000000000000000000e+00 1.739999999999999991e+00 1.000000000000000000e+00 0.000000000000000000e+00 1.000000000000000000e+00
0.000000000000000000e+00 1.000000000000000000e+00 1.080000000000000071e+00 1.000000000000000000e+00 0.000000000000000000e+00 1.000000000000000000e+00
0.000000000000000000e+00 1.000000000000000000e+00 1.419999999999999929e+00 1.000000000000000000e+00 0.000000000000000000e+00 1.000000000000000000e+00
0.000000000000000000e+00 1.000000000000000000e+00 2.000000000000000000e+00 1.000000000000000000e+00 0.000000000000000000e+00 1.000000000000000000e+00
0.000000000000000000e+00 1.000000000000000000e+00 1.600000000000000089e+00 1.000000000000000000e+00 0.000000000000000000e+00 1.000000000000000000e+00
0.000000000000000000e+00 1.000000000000000000e+00 1.000000000000000000e+00 1.000000000000000000e+00 0.000000000000000000e+00 1.000000000000000000e+00
0.000000000000000000e+00 1.000000000000000000e+00 1.560000000000000053e+00 1.000000000000000000e+00 0.000000000000000000e+00 1.000000000000000000e+00
0.000000000000000000e+00 1.000000000000000000e+00 2.000000000000000000e+00 1.000000000000000000e+00 0.000000000000000000e+00 1.000000000000000000e+00
0.000000000000000000e+00 1.000000000000000000e+00 2.000000000000000000e+00 1.000000000000000000e+00 0.000000000000000000e+00 1.000000000000000000e+00
0.000000000000000000e+00 1.000000000000000000e+00 1.739999999999999991e+00 1.000000000000000000e+00 0.000000000000000000e+00 1.000000000000000000e+00
0.000000000000000000e+00 1.000000000000000000e+00 2.000000000000000000e+00 1.000000000000000000e+00 0.000000000000000000e+00 1.000000000000000000e+00
0.000000000000000000e+00 1.000000000000000000e+00 2.000000000000000000e+00 1.000000000000000000e+00 0.000000000000000000e+00 1.000000000000000000e+00
0.000000000000000000e+00 1.000000000000000000e+00 2.000000000000000000e+00 1.000000000000000000e+00 0.000000000000000000e+00 1.000000000000000000e+00
0.000000000000000000e+00 1.000000000000000000e+00 1.159999999999999920e+00 1.000000000000000000e+00 0.000000000000000000e+00 1.000000000000000000e+00
0.000000000000000000e+00 1.000000000000000000e+00 1.000000000000000000e+00 1.000000000000000000e+00 0.000000000000000000e+00 1.000000000000000000e+00
0.000000000000000000e+00 1.000000000000000000e+00 1.000000000000000000e+00 1.000000000000000000e+00 0.000000000000000000e+00 1.000000000000000000e+00
0.000000000000000000e+00 1.000000000000000000e+00 1.000000000000000000e+00 1.000000000000000000e+00 0.000000000000000000e+00 1.000000000000000000e+00
0.000000000000000000e+00 1.000000000000000000e+00 1.000000000000000000e+00 1.000000000000000000e+00 0.000000000000000000e+00 1.000000000000000000e+00
0.000000000000000000e+00 1.000000000000000000e+00 1.000000000000000000e+00 1.000000000000000000e+00 0.000000000000000000e+00 1.000000000000000000e+00
0.000000000000000000e+00 1.000000000000000000e+00 1.000000000000000000e+00 1.000000000000000000e+00 0.000000000000000000e+00 1.000000000000000000e+00
0.000000000000000000e+00 1.000000000000000000e+00 1.000000000000000000e+00 1.000000000000000000e+00 0.000000000000000000e+00 1.000000000000000000e+00
0.000000000000000000e+00 1.000000000000000000e+00 1.000000000000000000e+00 1.000000000000000000e+00 0.000000000000000000e+00 1.000000000000000000e+00
0.000000000000000000e+00 1.000000000000000000e+00 1.000000000000000000e+00 1.000000000000000000e+00 0.000000000000000000e+00 1.000000000000000000e+00
0.000000000000000000e+00 1.000000000000000000e+00 1.000000000000000000e+00 1.000000000000000000e+00 0.000000000000000000e+00 1.000000000000000000e+00
0.000000000000000000e+00 1.000000000000000000e+00 1.000000000000000000e+00 1.000000000000000000e+00 0.000000000000000000e+00 1.000000000000000000e+00
0.000000000000000000e+00 1.000000000000000000e+00 1.000000000000000000e+00 1.000000000000000000e+00 0.000000000000000000e+00 1.000000000000000000e+00
0.000000000000000000e+00 1.000000000000000000e+00 1.000000000000000000e+00 1.000000000000000000e+00 0.000000000000000000e+00 1.000000000000000000e+00
0.000000000000000000e+00 1.000000000000000000e+00 1.419999999999999929e+00 1.000000000000000000e+00 0.000000000000000000e+00 1.000000000000000000e+00
0.000000000000000000e+00 1.000000000000000000e+00 2.000000000000000000e+00 1.120000000000000107e+00 0.000000000000000000e+00 1.000000000000000000e+00
0.000000000000000000e+00 1.000000000000000000e+00 2.000000000000000000e+00 2.000000000000000000e+00 0.000000000000000000e+00 1.000000000000000000e+00
0.000000000000000000e+00 1.000000000000000000e+00 2.000000000000000000e+00 2.000000000000000000e+00 0.000000000000000000e+00 1.000000000000000000e+00
0.000000000000000000e+00 1.000000000000000000e+00 2.000000000000000000e+00 2.000000000000000000e+00 0.000000000000000000e+00 1.000000000000000000e+00
5.000000000000000000e+00 5.759999999999999787e+00 1.001999999999999957e+01 1.300000000000000000e+01 5.639999999999999680e+00 2.380000000000000071e+01
5.000000000000000000e+00 6.000000000000000000e+00 1.024000000000000021e+01 1.301999999999999957e+01 6.000000000000000000e+00 2.533999999999999986e+01
5.639999999999999680e+00 6.200000000000000178e+00 1.098000000000000043e+01 1.438000000000000078e+01 6.000000000000000000e+00 2.783999999999999986e+01
5.679999999999999716e+00 7.000000000000000000e+00 1.151999999999999957e+01 1.453999999999999915e+01 6.000000000000000000e+00 2.880000000000000071e+01
6.000000000000000000e+00 7.000000000000000000e+00 1.230000000000000071e+01 1.500000000000000000e+01 6.559999999999999609e+00 3.050000000000000000e+01
6.000000000000000000e+00 7.000000000000000000e+00 1.300000000000000000e+01 1.506000000000000050e+01 7.000000000000000000e+00 3.169999999999999929e+01
6.000000000000000000e+00 7.440000000000000391e+00 1.300000000000000000e+01 1.500000000000000000e+01 7.000000000000000000e+00 3.400000000000000000e+01
6.000000000000000000e+00 7.759999999999999787e+00 1.309999999999999964e+01 1.500000000000000000e+01 7.000000000000000000e+00 3.371999999999999886e+01
6.000000000000000000e+00 7.000000000000000000e+00 1.400000000000000000e+01 1.500000000000000000e+01 7.000000000000000000e+00 3.300000000000000000e+01
6.000000000000000000e+00 7.000000000000000000e+00 1.400000000000000000e+01 1.406000000000000050e+01 6.559999999999999609e+00 3.300000000000000000e+01
6.000000000000000000e+00 7.000000000000000000e+00 1.400000000000000000e+01 1.400000000000000000e+01 6.360000000000000320e+00 3.257999999999999829e+01
6.000000000000000000e+00 7.000000000000000000e+00 1.398000000000000043e+01 1.400000000000000000e+01 6.000000000000000000e+00 3.207999999999999829e+01
5.459999999999999964e+00 7.000000000000000000e+00 1.332000000000000028e+01 1.293999999999999950e+01 6.000000000000000000e+00 3.039999999999999858e+01
5.000000000000000000e+00 6.259999999999999787e+00 1.300000000000000000e+01 1.200000000000000000e+01 6.000000000000000000e+00 2.976000000000000156e+01
5.000000000000000000e+00 6.000000000000000000e+00 1.250000000000000000e+01 1.203999999999999915e+01 5.900000000000000355e+00 3.026000000000000156e+01
5.000000000000000000e+00 6.000000000000000000e+00 1.200000000000000000e+01 1.190000000000000036e+01 6.000000000000000000e+00 3.067999999999999972e+01
5.000000000000000000e+00 6.059999999999999609e+00 1.200000000000000000e+01 1.272000000000000064e+01 6.000000000000000000e+00 3.064000000000000057e+01
5.000000000000000000e+00 6.000000000000000000e+00 1.200000000000000000e+01 1.324000000000000021e+01 6.299999999999999822e+00 3.252000000000000313e+01
5.839999999999999858e+00 6.120000000000000107e+00 1.127999999999999936e+01 1.366000000000000014e+01 7.000000000000000000e+00 3.389999999999999858e+01
6.000000000000000000e+00 7.000000000000000000e+00 1.138000000000000078e+01 1.400000000000000000e+01 7.000000000000000000e+00 3.547999999999999687e+01
6.000000000000000000e+00 7.000000000000000000e+00 1.100000000000000000e+01 1.400000000000000000e+01 7.000000000000000000e+00 3.685999999999999943e+01
6.000000000000000000e+00 7.000000000000000000e+00 1.100000000000000000e+01 1.400000000000000000e+01 7.000000000000000000e+00 3.710000000000000142e+01
6.299999999999999822e+00 7.160000000000000142e+00 1.100000000000000000e+01 1.400000000000000000e+01 7.000000000000000000e+00 3.625999999999999801e+01
7.000000000000000000e+00 8.000000000000000000e+00 1.100000000000000000e+01 1.419999999999999929e+01 7.000000000000000000e+00 3.564000000000000057e+01
7.000000000000000000e+00 8.000000000000000000e+00 1.151999999999999957e+01 1.416000000000000014e+01 7.139999999999999680e+00 3.471999999999999886e+01
7.000000000000000000e+00 8.000000000000000000e+00 1.200000000000000000e+01 1.474000000000000021e+01 8.000000000000000000e+00 3.329999999999999716e+01
7.000000000000000000e+00 8.000000000000000000e+00 1.200000000000000000e+01 1.422000000000000064e+01 8.000000000000000000e+00 3.151999999999999957e+01
7.900000000000000355e+00 8.000000000000000000e+00 1.200000000000000000e+01 1.400000000000000000e+01 7.500000000000000000e+00 2.983999999999999986e+01
8.000000000000000000e+00 8.380000000000000782e+00 1.230000000000000071e+01 1.377999999999999936e+01 7.000000000000000000e+00 2.855999999999999872e+01
8.000000000000000000e+00 9.000000000000000000e+00 1.227999999999999936e+01 1.385999999999999943e+01 7.000000000000000000e+00 2.705999999999999872e+01
8.000000000000000000e+00 8.019999999999999574e+00 1.282000000000000028e+01 1.324000000000000021e+01 7.000000000000000000e+00 2.662000000000000099e+01
8.000000000000000000e+00 8.000000000000000000e+00 1.300000000000000000e+01 1.400000000000000000e+01 7.000000000000000000e+00 2.600000000000000000e+01
7.679999999999999716e+00 8.000000000000000000e+00 1.300000000000000000e+01 1.400000000000000000e+01 7.000000000000000000e+00 2.687999999999999901e+01
7.000000000000000000e+00 7.259999999999999787e+00 1.300000000000000000e+01 1.400000000000000000e+01 7.000000000000000000e+00 2.712000000000000099e+01
7.000000000000000000e+00 8.000000000000000000e+00 1.300000000000000000e+01 1.332000000000000028e+01 7.000000000000000000e+00 2.739999999999999858e+01
6.160000000000000142e+00 7.219999999999999751e+00 1.225999999999999979e+01 1.233999999999999986e+01 6.759999999999999787e+00 2.676000000000000156e+01
5.919999999999999929e+00 6.940000000000000391e+00 1.200000000000000000e+01 1.158000000000000007e+01 6.000000000000000000e+00 2.528000000000000114e+01
5.000000000000000000e+00 6.000000000000000000e+00 1.111999999999999922e+01 1.100000000000000000e+01 6.000000000000000000e+00 2.382000000000000028e+01
4.679999999999999716e+00 5.559999999999999609e+00 1.038000000000000078e+01 1.035999999999999943e+01 5.700000000000000178e+00 2.248000000000000043e+01
4.000000000000000000e+00 5.000000000000000000e+00 9.519999999999999574e+00 9.300000000000000711e+00 5.000000000000000000e+00 2.142000000000000171e+01
