7.000000000000000000e+00 8.480000000000000426e+00 8.720000000000000639e+00 1.041999999999999993e+01
7.639999999999999680e+00 9.000000000000000000e+00 1.000000000000000000e+01 1.156000000000000050e+01
8.480000000000000426e+00 1.035999999999999943e+01 1.024000000000000021e+01 1.374000000000000021e+01
9.859999999999999432e+00 1.156000000000000050e+01 1.100000000000000000e+01 1.733999999999999986e+01
1.040000000000000036e+01 1.214000000000000057e+01 1.100000000000000000e+01 1.950000000000000000e+01
1.080000000000000071e+01 1.300000000000000000e+01 1.100000000000000000e+01 2.000000000000000000e+01
1.017999999999999972e+01 1.300000000000000000e+01 1.100000000000000000e+01 2.000000000000000000e+01
1.000000000000000000e+01 1.298000000000000043e+01 1.100000000000000000e+01 1.955999999999999872e+01
1.000000000000000000e+01 1.200000000000000000e+01 1.100000000000000000e+01 1.853999999999999915e+01
9.820000000000000284e+00 1.180000000000000071e+01 9.419999999999999929e+00 1.800000000000000000e+01
9.000000000000000000e+00 1.080000000000000071e+01 7.400000000000000355e+00 1.748000000000000043e+01
8.800000000000000711e+00 1.000000000000000000e+01 6.000000000000000000e+00 1.685999999999999943e+01
7.620000000000000107e+00 9.300000000000000711e+00 6.000000000000000000e+00 1.482000000000000028e+01
4.799999999999999822e+00 7.500000000000000000e+00 5.580000000000000071e+00 1.053999999999999915e+01
3.100000000000000089e+00 6.200000000000000178e+00 6.639999999999999680e+00 5.240000000000000213e+00
3.000000000000000000e+00 5.379999999999999893e+00 6.000000000000000000e+00 2.240000000000000213e+00
3.000000000000000000e+00 4.040000000000000036e+00 6.000000000000000000e+00 2.000000000000000000e+00
3.000000000000000000e+00 4.000000000000000000e+00 7.000000000000000000e+00 3.240000000000000213e+00
3.100000000000000089e+00 4.000000000000000000e+00 7.000000000000000000e+00 4.000000000000000000e+00
4.000000000000000000e+00 4.000000000000000000e+00 7.000000000000000000e+00 4.120000000000000107e+00
3.000000000000000000e+00 3.000000000000000000e+00 5.320000000000000284e+00 2.000000000000000000e+00
3.000000000000000000e+00 3.339999999999999858e+00 5.000000000000000000e+00 2.520000000000000018e+00
3.000000000000000000e+00 4.000000000000000000e+00 4.780000000000000249e+00 3.000000000000000000e+00
3.000000000000000000e+00 4.000000000000000000e+00 4.000000000000000000e+00 3.000000000000000000e+00
3.000000000000000000e+00 4.000000000000000000e+00 4.000000000000000000e+00 3.000000000000000000e+00
3.000000000000000000e+00 4.000000000000000000e+00 4.000000000000000000e+00 3.000000000000000000e+00
3.000000000000000000e+00 4.000000000000000000e+00 4.000000000000000000e+00 3.000000000000000000e+00
3.000000000000000000e+00 4.000000000000000000e+00 3.779999999999999805e+00 3.000000000000000000e+00
3.000000000000000000e+00 4.000000000000000000e+00 3.000000000000000000e+00 3.000000000000000000e+00
3.000000000000000000e+00 4.000000000000000000e+00 3.000000000000000000e+00 3.000000000000000000e+00
3.000000000000000000e+00 4.000000000000000000e+00 3.000000000000000000e+00 3.000000000000000000e+00
3.000000000000000000e+00 3.660000000000000142e+00 3.700000000000000178e+00 3.000000000000000000e+00
3.000000000000000000e+00 3.000000000000000000e+00 4.000000000000000000e+00 2.379999999999999893e+00
3.000000000000000000e+00 3.000000000000000000e+00 4.000000000000000000e+00 2.000000000000000000e+00
3.000000000000000000e+00 3.000000000000000000e+00 4.000000000000000000e+00 2.000000000000000000e+00
3.000000000000000000e+00 3.000000000000000000e+00 4.000000000000000000e+00 2.000000000000000000e+00
3.000000000000000000e+00 3.000000000000000000e+00 4.000000000000000000e+00 2.000000000000000000e+00
3.000000000000000000e+00 3.000000000000000000e+00 4.000000000000000000e+00 2.000000000000000000e+00
3.000000000000000000e+00 3.000000000000000000e+00 4.000000000000000000e+00 2.620000000000000107e+00
3.080000000000000071e+00 3.560000000000000053e+00 4.000000000000000000e+00 3.759999999999999787e+00
1.000000000000000000e+01 8.259999999999999787e+00 6.000000000000000000e+00 2.100000000000000000e+01
1.000000000000000000e+01 8.000000000000000000e+00 6.000000000000000000e+00 2.100000000000000000e+01
1.000000000000000000e+01 8.000000000000000000e+00 6.000000000000000000e+00 2.100000000000000000e+01
9.539999999999999147e+00 7.719999999999999751e+00 5.519999999999999574e+00 2.037999999999999901e+01
7.620000000000000107e+00 6.299999999999999822e+00 4.379999999999999893e+00 1.380000000000000071e+01
7.459999999999999964e+00 5.139999999999999680e+00 3.839999999999999858e+00 9.820000000000000284e+00
7.000000000000000000e+00 4.940000000000000391e+00 3.000000000000000000e+00 7.740000000000000213e+00
7.000000000000000000e+00 3.919999999999999929e+00 2.520000000000000018e+00 5.820000000000000284e+00
7.000000000000000000e+00 3.000000000000000000e+00 2.000000000000000000e+00 2.939999999999999947e+00
7.000000000000000000e+00 3.000000000000000000e+00 2.000000000000000000e+00 3.000000000000000000e+00
7.000000000000000000e+00 3.180000000000000160e+00 2.020000000000000018e+00 4.740000000000000213e+00
7.160000000000000142e+00 4.879999999999999893e+00 3.000000000000000000e+00 7.139999999999999680e+00
8.419999999999999929e+00 6.219999999999999751e+00 3.000000000000000000e+00 8.679999999999999716e+00
9.500000000000000000e+00 7.780000000000000249e+00 3.459999999999999964e+00 1.132000000000000028e+01
1.091999999999999993e+01 9.300000000000000711e+00 4.000000000000000000e+00 1.330000000000000071e+01
1.100000000000000000e+01 1.083999999999999986e+01 4.000000000000000000e+00 1.458000000000000007e+01
1.100000000000000000e+01 1.100000000000000000e+01 4.519999999999999574e+00 1.500000000000000000e+01
1.100000000000000000e+01 1.100000000000000000e+01 5.000000000000000000e+00 1.500000000000000000e+01
1.100000000000000000e+01 1.100000000000000000e+01 5.000000000000000000e+00 1.500000000000000000e+01
1.100000000000000000e+01 1.100000000000000000e+01 5.000000000000000000e+00 1.500000000000000000e+01
1.274000000000000021e+01 1.075999999999999979e+01 4.339999999999999858e+00 2.150000000000000000e+01
1.314000000000000057e+01 1.209999999999999964e+01 5.000000000000000000e+00 2.382000000000000028e+01
1.400000000000000000e+01 1.316000000000000014e+01 5.000000000000000000e+00 2.548000000000000043e+01
1.400000000000000000e+01 1.391999999999999993e+01 5.459999999999999964e+00 2.582000000000000028e+01
1.400000000000000000e+01 1.335999999999999943e+01 6.000000000000000000e+00 2.500000000000000000e+01
1.400000000000000000e+01 1.300000000000000000e+01 6.000000000000000000e+00 2.500000000000000000e+01
1.309999999999999964e+01 1.300000000000000000e+01 5.660000000000000142e+00 2.500000000000000000e+01
1.300000000000000000e+01 1.248000000000000043e+01 5.000000000000000000e+00 2.482000000000000028e+01
1.185999999999999943e+01 1.150000000000000000e+01 5.000000000000000000e+00 2.189999999999999858e+01
1.006000000000000050e+01 1.058000000000000007e+01 5.000000000000000000e+00 2.007999999999999829e+01
6.759999999999999787e+00 8.400000000000000355e+00 4.179999999999999716e+00 1.340000000000000036e+01
5.559999999999999609e+00 6.660000000000000142e+00 3.180000000000000160e+00 9.320000000000000284e+00
3.759999999999999787e+00 4.700000000000000178e+00 3.000000000000000000e+00 4.259999999999999787e+00
3.000000000000000000e+00 3.000000000000000000e+00 2.600000000000000089e+00 3.000000000000000000e+00
3.000000000000000000e+00 3.000000000000000000e+00 2.000000000000000000e+00 2.100000000000000089e+00
3.000000000000000000e+00 2.540000000000000036e+00 2.000000000000000000e+00 2.000000000000000000e+00
3.000000000000000000e+00 2.919999999999999929e+00 2.000000000000000000e+00 2.000000000000000000e+00
2.580000000000000071e+00 2.000000000000000000e+00 2.000000000000000000e+00 2.000000000000000000e+00
2.000000000000000000e+00 2.000000000000000000e+00 2.000000000000000000e+00 2.000000000000000000e+00
2.919999999999999929e+00 2.779999999999999805e+00 2.000000000000000000e+00 2.000000000000000000e+00
6.900000000000000355e+00 5.000000000000000000e+00 3.000000000000000000e+00 1.391999999999999993e+01
5.400000000000000355e+00 4.400000000000000355e+00 3.000000000000000000e+00 9.759999999999999787e+00
4.440000000000000391e+00 3.740000000000000213e+00 3.000000000000000000e+00 8.019999999999999574e+00
4.000000000000000000e+00 3.000000000000000000e+00 2.479999999999999982e+00 5.000000000000000000e+00
3.040000000000000036e+00 2.160000000000000142e+00 2.000000000000000000e+00 2.339999999999999858e+00
3.000000000000000000e+00 2.020000000000000018e+00 2.000000000000000000e+00 2.000000000000000000e+00
3.000000000000000000e+00 2.000000000000000000e+00 2.000000000000000000e+00 2.000000000000000000e+00
2.959999999999999964e+00 2.000000000000000000e+00 2.000000000000000000e+00 1.080000000000000071e+00
2.000000000000000000e+00 2.000000000000000000e+00 2.000000000000000000e+00 1.000000000000000000e+00
2.680000000000000160e+00 2.000000000000000000e+00 2.000000000000000000e+00 1.000000000000000000e+00
2.000000000000000000e+00 2.000000000000000000e+00 1.379999999999999893e+00 1.000000000000000000e+00
2.000000000000000000e+00 2.000000000000000000e+00 1.000000000000000000e+00 1.000000000000000000e+00
2.000000000000000000e+00 2.000000000000000000e+00 1.000000000000000000e+00 1.020000000000000018e+00
2.000000000000000000e+00 2.000000000000000000e+00 1.000000000000000000e+00 2.000000000000000000e+00
2.000000000000000000e+00 2.600000000000000089e+00 1.000000000000000000e+00 2.000000000000000000e+00
2.000000000000000000e+00 2.419999999999999929e+00 1.000000000000000000e+00 2.000000000000000000e+00
2.000000000000000000e+00 2.000000000000000000e+00 1.000000000000000000e+00 2.000000000000000000e+00
2.000000000000000000e+00 2.000000000000000000e+00 1.000000000000000000e+00 2.000000000000000000e+00
2.000000000000000000e+00 2.000000000000000000e+00 1.000000000000000000e+00 2.000000000000000000e+00
2.000000000000000000e+00 2.000000000000000000e+00 1.000000000000000000e+00 2.000000000000000000e+00
