2.300000000000000000e+01 4.607999999999999829e+01 1.178599999999999994e+02 2.600000000000000000e+01 2.500000000000000000e+01 1.367999999999999972e+01
2.317999999999999972e+01 4.700000000000000000e+01 1.115799999999999983e+02 2.651999999999999957e+01 2.342000000000000171e+01 1.317999999999999972e+01
2.312000000000000099e+01 4.675999999999999801e+01 1.022800000000000011e+02 2.892000000000000171e+01 2.400000000000000000e+01 1.300000000000000000e+01
2.300000000000000000e+01 4.350000000000000000e+01 9.731999999999999318e+01 2.900000000000000000e+01 2.314000000000000057e+01 1.300000000000000000e+01
2.239999999999999858e+01 3.834000000000000341e+01 9.521999999999999886e+01 2.876000000000000156e+01 2.200000000000000000e+01 1.300000000000000000e+01
2.237999999999999901e+01 3.671999999999999886e+01 9.385999999999999943e+01 2.773999999999999844e+01 2.055999999999999872e+01 1.300000000000000000e+01
2.300000000000000000e+01 3.525999999999999801e+01 9.150000000000000000e+01 2.666000000000000014e+01 1.966000000000000014e+01 1.300000000000000000e+01
2.280000000000000071e+01 3.417999999999999972e+01 8.862000000000000455e+01 2.700000000000000000e+01 1.989999999999999858e+01 1.300000000000000000e+01
2.255999999999999872e+01 3.342000000000000171e+01 8.412000000000000455e+01 2.667999999999999972e+01 1.905999999999999872e+01 1.300000000000000000e+01
2.139999999999999858e+01 3.375999999999999801e+01 8.443999999999999773e+01 2.700000000000000000e+01 1.982000000000000028e+01 1.300000000000000000e+01
2.117999999999999972e+01 3.187999999999999901e+01 8.457999999999999829e+01 2.710000000000000142e+01 2.035999999999999943e+01 1.300000000000000000e+01
2.171999999999999886e+01 3.000000000000000000e+01 8.184000000000000341e+01 2.833999999999999986e+01 2.057999999999999829e+01 1.300000000000000000e+01
2.042000000000000171e+01 2.864000000000000057e+01 8.020000000000000284e+01 2.792000000000000171e+01 2.037999999999999901e+01 1.261999999999999922e+01
2.092000000000000171e+01 2.700000000000000000e+01 7.923999999999999488e+01 2.776000000000000156e+01 2.132000000000000028e+01 1.219999999999999929e+01
2.107999999999999829e+01 2.600000000000000000e+01 8.068000000000000682e+01 2.883999999999999986e+01 2.200000000000000000e+01 1.233999999999999986e+01
2.064000000000000057e+01 2.476000000000000156e+01 8.015999999999999659e+01 2.876000000000000156e+01 2.251999999999999957e+01 1.253999999999999915e+01
2.000000000000000000e+01 2.400000000000000000e+01 7.731999999999999318e+01 2.851999999999999957e+01 2.235999999999999943e+01 1.200000000000000000e+01
2.000000000000000000e+01 2.337999999999999901e+01 8.098000000000000398e+01 2.914000000000000057e+01 2.282000000000000028e+01 1.200000000000000000e+01
2.000000000000000000e+01 2.255999999999999872e+01 8.670000000000000284e+01 2.937999999999999901e+01 2.300000000000000000e+01 1.200000000000000000e+01
2.000000000000000000e+01 2.000000000000000000e+01 8.676000000000000512e+01 2.996000000000000085e+01 2.262000000000000099e+01 1.200000000000000000e+01
1.982000000000000028e+01 1.998000000000000043e+01 8.792000000000000171e+01 2.992000000000000171e+01 2.151999999999999957e+01 1.200000000000000000e+01
1.900000000000000000e+01 2.000000000000000000e+01 8.759999999999999432e+01 2.880000000000000071e+01 2.032000000000000028e+01 1.200000000000000000e+01
1.846000000000000085e+01 2.000000000000000000e+01 8.776000000000000512e+01 2.650000000000000000e+01 2.210000000000000142e+01 1.200000000000000000e+01
1.800000000000000000e+01 2.000000000000000000e+01 8.915999999999999659e+01 2.528000000000000114e+01 2.100000000000000000e+01 1.200000000000000000e+01
1.757999999999999829e+01 2.021999999999999886e+01 9.162000000000000455e+01 2.507999999999999829e+01 2.092000000000000171e+01 1.177999999999999936e+01
1.700000000000000000e+01 1.983999999999999986e+01 9.207999999999999829e+01 2.583999999999999986e+01 2.069999999999999929e+01 1.135999999999999943e+01
1.748000000000000043e+01 1.980000000000000071e+01 9.048000000000000398e+01 2.600000000000000000e+01 2.000000000000000000e+01 1.200000000000000000e+01
1.755999999999999872e+01 2.000000000000000000e+01 8.673999999999999488e+01 2.469999999999999929e+01 2.016000000000000014e+01 1.200000000000000000e+01
1.712000000000000099e+01 2.000000000000000000e+01 8.050000000000000000e+01 2.376000000000000156e+01 2.073999999999999844e+01 1.200000000000000000e+01
1.683999999999999986e+01 2.000000000000000000e+01 7.771999999999999886e+01 2.321999999999999886e+01 2.287999999999999901e+01 1.200000000000000000e+01
1.700000000000000000e+01 2.021999999999999886e+01 7.434000000000000341e+01 2.226000000000000156e+01 2.373999999999999844e+01 1.200000000000000000e+01
1.700000000000000000e+01 2.100000000000000000e+01 7.629999999999999716e+01 2.164000000000000057e+01 2.437999999999999901e+01 1.200000000000000000e+01
1.700000000000000000e+01 2.182000000000000028e+01 7.500000000000000000e+01 2.169999999999999929e+01 2.300000000000000000e+01 1.180000000000000071e+01
1.607999999999999829e+01 2.200000000000000000e+01 7.115999999999999659e+01 2.298000000000000043e+01 2.300000000000000000e+01 1.101999999999999957e+01
1.600000000000000000e+01 2.167999999999999972e+01 6.612000000000000455e+01 2.301999999999999957e+01 2.267999999999999972e+01 1.100000000000000000e+01
1.600000000000000000e+01 2.100000000000000000e+01 6.581999999999999318e+01 2.221999999999999886e+01 2.200000000000000000e+01 1.100000000000000000e+01
1.569999999999999929e+01 2.100000000000000000e+01 6.476000000000000512e+01 2.200000000000000000e+01 2.200000000000000000e+01 1.100000000000000000e+01
1.538000000000000078e+01 2.023999999999999844e+01 6.303999999999999915e+01 2.200000000000000000e+01 2.200000000000000000e+01 1.100000000000000000e+01
1.500000000000000000e+01 2.083999999999999986e+01 6.210000000000000142e+01 2.200000000000000000e+01 2.144000000000000128e+01 1.100000000000000000e+01
1.500000000000000000e+01 2.085999999999999943e+01 6.006000000000000227e+01 2.100000000000000000e+01 1.910000000000000142e+01 1.093999999999999950e+01
2.000000000000000000e+00 2.000000000000000000e+00 1.000000000000000000e+01 6.000000000000000000e+00 9.599999999999999645e-01 2.000000000000000000e+00
2.000000000000000000e+00 2.000000000000000000e+00 1.000000000000000000e+01 6.000000000000000000e+00 1.000000000000000000e+00 1.260000000000000009e+00
1.219999999999999973e+00 2.000000000000000000e+00 1.000000000000000000e+01 5.419999999999999929e+00 1.000000000000000000e+00 1.000000000000000000e+00
1.600000000000000089e+00 2.000000000000000000e+00 1.000000000000000000e+01 5.000000000000000000e+00 1.000000000000000000e+00 1.000000000000000000e+00
1.520000000000000018e+00 2.000000000000000000e+00 1.000000000000000000e+01 5.000000000000000000e+00 5.200000000000000178e-01 1.000000000000000000e+00
1.419999999999999929e+00 2.000000000000000000e+00 1.000000000000000000e+01 5.000000000000000000e+00 0.000000000000000000e+00 1.000000000000000000e+00
2.000000000000000000e+00 2.000000000000000000e+00 1.000000000000000000e+01 5.000000000000000000e+00 2.000000000000000042e-02 1.000000000000000000e+00
2.000000000000000000e+00 2.000000000000000000e+00 1.006000000000000050e+01 5.000000000000000000e+00 1.000000000000000000e+00 1.000000000000000000e+00
2.000000000000000000e+00 2.080000000000000071e+00 1.000000000000000000e+01 5.000000000000000000e+00 1.000000000000000000e+00 1.000000000000000000e+00
2.000000000000000000e+00 2.479999999999999982e+00 1.000000000000000000e+01 5.000000000000000000e+00 1.000000000000000000e+00 1.000000000000000000e+00
2.000000000000000000e+00 2.000000000000000000e+00 1.017999999999999972e+01 4.400000000000000355e+00 1.000000000000000000e+00 1.000000000000000000e+00
2.000000000000000000e+00 2.000000000000000000e+00 1.100000000000000000e+01 4.219999999999999751e+00 1.000000000000000000e+00 1.000000000000000000e+00
2.000000000000000000e+00 2.000000000000000000e+00 1.100000000000000000e+01 4.000000000000000000e+00 1.000000000000000000e+00 1.000000000000000000e+00
2.000000000000000000e+00 2.000000000000000000e+00 1.100000000000000000e+01 4.000000000000000000e+00 1.000000000000000000e+00 1.000000000000000000e+00
2.000000000000000000e+00 2.000000000000000000e+00 1.100000000000000000e+01 4.000000000000000000e+00 1.000000000000000000e+00 1.000000000000000000e+00
2.000000000000000000e+00 2.000000000000000000e+00 1.185999999999999943e+01 4.000000000000000000e+00 1.000000000000000000e+00 1.000000000000000000e+00
2.000000000000000000e+00 2.000000000000000000e+00 1.125999999999999979e+01 4.000000000000000000e+00 9.799999999999999822e-01 1.000000000000000000e+00
2.000000000000000000e+00 2.000000000000000000e+00 1.100000000000000000e+01 4.000000000000000000e+00 0.000000000000000000e+00 1.000000000000000000e+00
2.000000000000000000e+00 2.000000000000000000e+00 1.100000000000000000e+01 4.000000000000000000e+00 0.000000000000000000e+00 1.000000000000000000e+00
2.000000000000000000e+00 2.000000000000000000e+00 1.100000000000000000e+01 4.000000000000000000e+00 0.000000000000000000e+00 1.000000000000000000e+00
1.820000000000000062e+00 2.000000000000000000e+00 1.100000000000000000e+01 4.000000000000000000e+00 0.000000000000000000e+00 1.000000000000000000e+00
1.739999999999999991e+00 2.000000000000000000e+00 1.100000000000000000e+01 4.000000000000000000e+00 0.000000000000000000e+00 1.000000000000000000e+00
2.000000000000000000e+00 2.000000000000000000e+00 1.109999999999999964e+01 4.000000000000000000e+00 0.000000000000000000e+00 1.000000000000000000e+00
2.000000000000000000e+00 2.000000000000000000e+00 1.100000000000000000e+01 4.299999999999999822e+00 0.000000000000000000e+00 1.000000000000000000e+00
2.000000000000000000e+00 2.000000000000000000e+00 1.138000000000000078e+01 4.000000000000000000e+00 0.000000000000000000e+00 1.000000000000000000e+00
1.679999999999999938e+00 2.000000000000000000e+00 1.100000000000000000e+01 4.219999999999999751e+00 0.000000000000000000e+00 1.000000000000000000e+00
1.879999999999999893e+00 2.000000000000000000e+00 1.100000000000000000e+01 5.000000000000000000e+00 0.000000000000000000e+00 1.000000000000000000e+00
1.739999999999999991e+00 2.000000000000000000e+00 1.100000000000000000e+01 5.000000000000000000e+00 0.000000000000000000e+00 1.000000000000000000e+00
1.179999999999999938e+00 2.000000000000000000e+00 1.100000000000000000e+01 5.000000000000000000e+00 0.000000000000000000e+00 1.000000000000000000e+00
1.000000000000000000e+00 2.000000000000000000e+00 1.100000000000000000e+01 4.059999999999999609e+00 0.000000000000000000e+00 1.000000000000000000e+00
1.100000000000000089e+00 2.000000000000000000e+00 1.148000000000000043e+01 4.000000000000000000e+00 0.000000000000000000e+00 1.000000000000000000e+00
1.260000000000000009e+00 2.000000000000000000e+00 1.103999999999999915e+01 4.000000000000000000e+00 0.000000000000000000e+00 1.000000000000000000e+00
1.000000000000000000e+00 2.000000000000000000e+00 1.100000000000000000e+01 4.000000000000000000e+00 0.000000000000000000e+00 1.000000000000000000e+00
1.000000000000000000e+00 2.000000000000000000e+00 1.100000000000000000e+01 4.040000000000000036e+00 0.000000000000000000e+00 1.000000000000000000e+00
1.000000000000000000e+00 2.000000000000000000e+00 1.100000000000000000e+01 4.019999999999999574e+00 0.000000000000000000e+00 1.000000000000000000e+00
1.139999999999999902e+00 2.000000000000000000e+00 1.098000000000000043e+01 4.400000000000000355e+00 0.000000000000000000e+00 1.000000000000000000e+00
2.000000000000000000e+00 2.000000000000000000e+00 1.100000000000000000e+01 4.000000000000000000e+00 0.000000000000000000e+00 1.000000000000000000e+00
1.340000000000000080e+00 2.000000000000000000e+00 1.117999999999999972e+01 4.000000000000000000e+00 0.000000000000000000e+00 1.000000000000000000e+00
1.959999999999999964e+00 2.000000000000000000e+00 1.159999999999999964e+01 4.120000000000000107e+00 0.000000000000000000e+00 1.000000000000000000e+00
2.000000000000000000e+00 2.000000000000000000e+00 1.264000000000000057e+01 5.000000000000000000e+00 0.000000000000000000e+00 1.000000000000000000e+00
2.779999999999999805e+00 2.000000000000000000e+00 1.800000000000000044e+00 2.000000000000000000e+00 0.000000000000000000e+00 1.000000000000000000e+00
3.000000000000000000e+00 2.000000000000000000e+00 1.000000000000000000e+00 2.000000000000000000e+00 0.000000000000000000e+00 1.000000000000000000e+00
3.939999999999999947e+00 2.000000000000000000e+00 1.000000000000000000e+00 2.000000000000000000e+00 0.000000000000000000e+00 1.000000000000000000e+00
4.799999999999999822e+00 2.000000000000000000e+00 1.000000000000000000e+00 2.000000000000000000e+00 0.000000000000000000e+00 1.000000000000000000e+00
5.000000000000000000e+00 2.000000000000000000e+00 1.000000000000000000e+00 2.000000000000000000e+00 0.000000000000000000e+00 1.000000000000000000e+00
5.000000000000000000e+00 2.000000000000000000e+00 1.000000000000000000e+00 2.000000000000000000e+00 0.000000000000000000e+00 1.000000000000000000e+00
5.000000000000000000e+00 2.000000000000000000e+00 1.000000000000000000e+00 1.919999999999999929e+00 0.000000000000000000e+00 1.000000000000000000e+00
5.000000000000000000e+00 2.000000000000000000e+00 1.000000000000000000e+00 1.000000000000000000e+00 0.000000000000000000e+00 1.000000000000000000e+00
5.000000000000000000e+00 2.000000000000000000e+00 1.000000000000000000e+00 1.000000000000000000e+00 0.000000000000000000e+00 1.000000000000000000e+00
4.900000000000000355e+00 2.080000000000000071e+00 1.000000000000000000e+00 1.000000000000000000e+00 0.000000000000000000e+00 1.000000000000000000e+00
4.000000000000000000e+00 3.000000000000000000e+00 1.000000000000000000e+00 1.000000000000000000e+00 0.000000000000000000e+00 1.000000000000000000e+00
4.000000000000000000e+00 3.000000000000000000e+00 1.000000000000000000e+00 1.000000000000000000e+00 0.000000000000000000e+00 1.000000000000000000e+00
2.899999999999999911e+00 3.799999999999999822e+00 1.000000000000000000e+00 1.000000000000000000e+00 0.000000000000000000e+00 1.000000000000000000e+00
2.000000000000000000e+00 5.759999999999999787e+00 1.000000000000000000e+00 1.000000000000000000e+00 0.000000000000000000e+00 1.000000000000000000e+00
2.000000000000000000e+00 7.580000000000000071e+00 1.000000000000000000e+00 1.000000000000000000e+00 0.000000000000000000e+00 1.000000000000000000e+00
2.000000000000000000e+00 8.500000000000000000e+00 1.000000000000000000e+00 1.000000000000000000e+00 0.000000000000000000e+00 1.000000000000000000e+00
2.000000000000000000e+00 1.000000000000000000e+01 1.000000000000000000e+00 1.000000000000000000e+00 0.000000000000000000e+00 1.000000000000000000e+00
2.000000000000000000e+00 1.000000000000000000e+01 1.500000000000000000e+00 1.000000000000000000e+00 0.000000000000000000e+00 1.000000000000000000e+00
2.000000000000000000e+00 1.000000000000000000e+01 2.000000000000000000e+00 1.000000000000000000e+00 0.000000000000000000e+00 1.000000000000000000e+00
2.000000000000000000e+00 1.040000000000000036e+01 2.000000000000000000e+00 1.000000000000000000e+00 7.800000000000000266e-01 1.000000000000000000e+00
2.000000000000000000e+00 1.116000000000000014e+01 2.000000000000000000e+00 1.000000000000000000e+00 1.000000000000000000e+00 1.000000000000000000e+00
3.660000000000000142e+00 1.200000000000000000e+01 2.000000000000000000e+00 1.000000000000000000e+00 1.000000000000000000e+00 1.000000000000000000e+00
4.000000000000000000e+00 1.200000000000000000e+01 2.000000000000000000e+00 1.000000000000000000e+00 1.000000000000000000e+00 1.000000000000000000e+00
4.000000000000000000e+00 1.143999999999999950e+01 2.000000000000000000e+00 1.159999999999999920e+00 1.000000000000000000e+00 1.000000000000000000e+00
4.000000000000000000e+00 1.041999999999999993e+01 2.000000000000000000e+00 2.000000000000000000e+00 1.000000000000000000e+00 1.000000000000000000e+00
4.000000000000000000e+00 9.720000000000000639e+00 2.000000000000000000e+00 2.000000000000000000e+00 1.000000000000000000e+00 1.000000000000000000e+00
4.000000000000000000e+00 9.000000000000000000e+00 2.000000000000000000e+00 2.000000000000000000e+00 1.100000000000000089e+00 1.000000000000000000e+00
4.000000000000000000e+00 9.000000000000000000e+00 1.560000000000000053e+00 2.000000000000000000e+00 2.000000000000000000e+00 1.000000000000000000e+00
4.000000000000000000e+00 9.000000000000000000e+00 1.000000000000000000e+00 2.000000000000000000e+00 2.000000000000000000e+00 1.000000000000000000e+00
4.000000000000000000e+00 9.339999999999999858e+00 1.000000000000000000e+00 1.419999999999999929e+00 1.219999999999999973e+00 1.000000000000000000e+00
4.000000000000000000e+00 9.400000000000000355e+00 1.000000000000000000e+00 1.780000000000000027e+00 1.000000000000000000e+00 1.000000000000000000e+00
2.459999999999999964e+00 9.000000000000000000e+00 1.000000000000000000e+00 2.000000000000000000e+00 1.000000000000000000e+00 1.000000000000000000e+00
2.000000000000000000e+00 9.000000000000000000e+00 1.000000000000000000e+00 2.000000000000000000e+00 1.000000000000000000e+00 1.000000000000000000e+00
2.000000000000000000e+00 9.000000000000000000e+00 1.000000000000000000e+00 2.000000000000000000e+00 1.000000000000000000e+00 1.000000000000000000e+00
2.000000000000000000e+00 9.259999999999999787e+00 1.739999999999999991e+00 2.000000000000000000e+00 1.000000000000000000e+00 1.000000000000000000e+00
2.000000000000000000e+00 1.000000000000000000e+01 2.000000000000000000e+00 2.000000000000000000e+00 1.000000000000000000e+00 1.000000000000000000e+00
2.000000000000000000e+00 1.000000000000000000e+01 2.000000000000000000e+00 2.000000000000000000e+00 9.000000000000000222e-01 1.000000000000000000e+00
2.020000000000000018e+00 1.000000000000000000e+01 2.000000000000000000e+00 2.000000000000000000e+00 0.000000000000000000e+00 1.000000000000000000e+00
3.000000000000000000e+00 1.000000000000000000e+01 2.000000000000000000e+00 2.000000000000000000e+00 0.000000000000000000e+00 1.000000000000000000e+00
3.000000000000000000e+00 8.740000000000000213e+00 2.000000000000000000e+00 2.000000000000000000e+00 0.000000000000000000e+00 1.000000000000000000e+00
1.655999999999999872e+01 2.103999999999999915e+01 7.978000000000000114e+01 2.221999999999999886e+01 1.500000000000000000e+01 1.200000000000000000e+01
1.700000000000000000e+01 1.976000000000000156e+01 7.762000000000000455e+01 2.214000000000000057e+01 1.472000000000000064e+01 1.200000000000000000e+01
1.700000000000000000e+01 1.900000000000000000e+01 7.754000000000000625e+01 2.239999999999999858e+01 1.419999999999999929e+01 1.200000000000000000e+01
1.612000000000000099e+01 1.900000000000000000e+01 7.876000000000000512e+01 2.200000000000000000e+01 1.400000000000000000e+01 1.200000000000000000e+01
1.590000000000000036e+01 1.896000000000000085e+01 7.990000000000000568e+01 2.148000000000000043e+01 1.456000000000000050e+01 1.200000000000000000e+01
1.556000000000000050e+01 1.814000000000000057e+01 7.751999999999999602e+01 2.096000000000000085e+01 1.400000000000000000e+01 1.177999999999999936e+01
1.514000000000000057e+01 1.796000000000000085e+01 7.576000000000000512e+01 2.085999999999999943e+01 1.441999999999999993e+01 1.100000000000000000e+01
1.511999999999999922e+01 1.703999999999999915e+01 7.579999999999999716e+01 2.200000000000000000e+01 1.698000000000000043e+01 1.100000000000000000e+01
1.493999999999999950e+01 1.616000000000000014e+01 7.462000000000000455e+01 2.200000000000000000e+01 1.733999999999999986e+01 1.091999999999999993e+01
1.498000000000000043e+01 1.600000000000000000e+01 7.184000000000000341e+01 2.069999999999999929e+01 1.748000000000000043e+01 1.019999999999999929e+01
1.406000000000000050e+01 1.551999999999999957e+01 6.735999999999999943e+01 2.048000000000000043e+01 1.703999999999999915e+01 1.000000000000000000e+01
1.350000000000000000e+01 1.500000000000000000e+01 6.445999999999999375e+01 2.026000000000000156e+01 1.700000000000000000e+01 1.000000000000000000e+01
1.300000000000000000e+01 1.501999999999999957e+01 6.215999999999999659e+01 1.948000000000000043e+01 1.666000000000000014e+01 9.679999999999999716e+00
1.300000000000000000e+01 1.527999999999999936e+01 6.020000000000000284e+01 1.878000000000000114e+01 1.614000000000000057e+01 9.000000000000000000e+00
1.300000000000000000e+01 1.441999999999999993e+01 5.671999999999999886e+01 1.850000000000000000e+01 1.566000000000000014e+01 8.779999999999999361e+00
1.296000000000000085e+01 1.400000000000000000e+01 5.496000000000000085e+01 1.900000000000000000e+01 1.600000000000000000e+01 8.000000000000000000e+00
1.233999999999999986e+01 1.400000000000000000e+01 5.434000000000000341e+01 1.817999999999999972e+01 1.506000000000000050e+01 8.000000000000000000e+00
1.250000000000000000e+01 1.400000000000000000e+01 5.196000000000000085e+01 1.700000000000000000e+01 1.253999999999999915e+01 8.000000000000000000e+00
1.208000000000000007e+01 1.400000000000000000e+01 5.789999999999999858e+01 1.664000000000000057e+01 1.151999999999999957e+01 8.000000000000000000e+00
1.200000000000000000e+01 1.400000000000000000e+01 5.828000000000000114e+01 1.535999999999999943e+01 1.090000000000000036e+01 8.000000000000000000e+00
1.156000000000000050e+01 1.333999999999999986e+01 5.734000000000000341e+01 1.450000000000000000e+01 1.040000000000000036e+01 7.480000000000000426e+00
1.100000000000000000e+01 1.296000000000000085e+01 5.684000000000000341e+01 1.303999999999999915e+01 1.000000000000000000e+01 7.400000000000000355e+00
1.027999999999999936e+01 1.200000000000000000e+01 5.475999999999999801e+01 1.200000000000000000e+01 1.000000000000000000e+01 7.000000000000000000e+00
1.000000000000000000e+01 1.198000000000000043e+01 5.271999999999999886e+01 1.193999999999999950e+01 9.460000000000000853e+00 7.000000000000000000e+00
9.339999999999999858e+00 1.100000000000000000e+01 5.052000000000000313e+01 1.088000000000000078e+01 8.759999999999999787e+00 7.000000000000000000e+00
8.740000000000000213e+00 1.098000000000000043e+01 4.838000000000000256e+01 9.179999999999999716e+00 7.839999999999999858e+00 6.360000000000000320e+00
7.980000000000000426e+00 9.820000000000000284e+00 4.534000000000000341e+01 8.779999999999999361e+00 7.000000000000000000e+00 6.000000000000000000e+00
6.400000000000000355e+00 9.000000000000000000e+00 4.215999999999999659e+01 7.839999999999999858e+00 6.000000000000000000e+00 5.280000000000000249e+00
5.059999999999999609e+00 8.140000000000000568e+00 2.901999999999999957e+01 7.000000000000000000e+00 5.059999999999999609e+00 5.000000000000000000e+00
4.280000000000000249e+00 7.000000000000000000e+00 2.366000000000000014e+01 6.679999999999999716e+00 4.820000000000000284e+00 5.000000000000000000e+00
4.000000000000000000e+00 7.000000000000000000e+00 2.066000000000000014e+01 6.000000000000000000e+00 4.000000000000000000e+00 5.000000000000000000e+00
3.459999999999999964e+00 6.299999999999999822e+00 1.835999999999999943e+01 6.000000000000000000e+00 3.319999999999999840e+00 4.959999999999999964e+00
3.000000000000000000e+00 5.719999999999999751e+00 1.655999999999999872e+01 6.000000000000000000e+00 2.959999999999999964e+00 4.120000000000000107e+00
2.419999999999999929e+00 4.160000000000000142e+00 1.401999999999999957e+01 5.480000000000000426e+00 1.500000000000000000e+00 3.879999999999999893e+00
2.000000000000000000e+00 3.520000000000000018e+00 1.200000000000000000e+01 5.000000000000000000e+00 1.000000000000000000e+00 3.000000000000000000e+00
1.219999999999999973e+00 3.000000000000000000e+00 1.009999999999999964e+01 5.000000000000000000e+00 1.000000000000000000e+00 3.000000000000000000e+00
1.000000000000000000e+00 3.000000000000000000e+00 9.140000000000000568e+00 5.000000000000000000e+00 1.000000000000000000e+00 3.000000000000000000e+00
1.000000000000000000e+00 2.879999999999999893e+00 7.919999999999999929e+00 4.839999999999999858e+00 1.000000000000000000e+00 3.000000000000000000e+00
1.000000000000000000e+00 2.000000000000000000e+00 6.860000000000000320e+00 4.360000000000000320e+00 1.000000000000000000e+00 3.000000000000000000e+00
1.000000000000000000e+00 2.000000000000000000e+00 5.120000000000000107e+00 4.000000000000000000e+00 1.000000000000000000e+00 3.000000000000000000e+00
6.000000000000000000e+00 1.300000000000000000e+01 9.000000000000000000e+00 1.300000000000000000e+01 5.019999999999999574e+00 2.600000000000000000e+01
6.000000000000000000e+00 1.300000000000000000e+01 9.000000000000000000e+00 1.383999999999999986e+01 6.000000000000000000e+00 2.600000000000000000e+01
6.839999999999999858e+00 1.153999999999999915e+01 9.300000000000000711e+00 1.416000000000000014e+01 6.000000000000000000e+00 2.676000000000000156e+01
7.000000000000000000e+00 1.100000000000000000e+01 9.400000000000000355e+00 1.500000000000000000e+01 6.000000000000000000e+00 2.610000000000000142e+01
7.000000000000000000e+00 1.100000000000000000e+01 9.539999999999999147e+00 1.500000000000000000e+01 6.000000000000000000e+00 2.600000000000000000e+01
7.000000000000000000e+00 1.100000000000000000e+01 9.080000000000000071e+00 1.500000000000000000e+01 6.000000000000000000e+00 2.600000000000000000e+01
7.000000000000000000e+00 1.100000000000000000e+01 1.000000000000000000e+01 1.500000000000000000e+01 6.000000000000000000e+00 2.600000000000000000e+01
7.000000000000000000e+00 9.320000000000000284e+00 1.000000000000000000e+01 1.500000000000000000e+01 6.000000000000000000e+00 2.485999999999999943e+01
7.000000000000000000e+00 8.000000000000000000e+00 1.000000000000000000e+01 1.482000000000000028e+01 6.000000000000000000e+00 2.400000000000000000e+01
7.000000000000000000e+00 8.000000000000000000e+00 1.001999999999999957e+01 1.400000000000000000e+01 5.040000000000000036e+00 2.369999999999999929e+01
7.000000000000000000e+00 8.000000000000000000e+00 1.000000000000000000e+01 1.400000000000000000e+01 5.000000000000000000e+00 2.398000000000000043e+01
7.280000000000000249e+00 8.000000000000000000e+00 1.024000000000000021e+01 1.396000000000000085e+01 5.000000000000000000e+00 2.455999999999999872e+01
8.000000000000000000e+00 7.440000000000000391e+00 1.100000000000000000e+01 1.382000000000000028e+01 5.000000000000000000e+00 2.510000000000000142e+01
8.000000000000000000e+00 7.660000000000000142e+00 1.100000000000000000e+01 1.306000000000000050e+01 5.000000000000000000e+00 2.542000000000000171e+01
8.000000000000000000e+00 7.860000000000000320e+00 1.108000000000000007e+01 1.348000000000000043e+01 5.000000000000000000e+00 2.585999999999999943e+01
8.000000000000000000e+00 7.139999999999999680e+00 1.175999999999999979e+01 1.300000000000000000e+01 4.780000000000000249e+00 2.594000000000000128e+01
8.000000000000000000e+00 7.480000000000000426e+00 1.200000000000000000e+01 1.251999999999999957e+01 4.000000000000000000e+00 2.719999999999999929e+01
8.000000000000000000e+00 8.000000000000000000e+00 1.277999999999999936e+01 1.277999999999999936e+01 4.000000000000000000e+00 2.730000000000000071e+01
8.000000000000000000e+00 8.000000000000000000e+00 1.300000000000000000e+01 1.300000000000000000e+01 4.719999999999999751e+00 2.600000000000000000e+01
8.000000000000000000e+00 8.000000000000000000e+00 1.300000000000000000e+01 1.300000000000000000e+01 5.000000000000000000e+00 2.580000000000000071e+01
8.000000000000000000e+00 8.000000000000000000e+00 1.300000000000000000e+01 1.300000000000000000e+01 5.000000000000000000e+00 2.460000000000000142e+01
7.919999999999999929e+00 8.000000000000000000e+00 1.300000000000000000e+01 1.327999999999999936e+01 5.000000000000000000e+00 2.387999999999999901e+01
7.000000000000000000e+00 8.000000000000000000e+00 1.300000000000000000e+01 1.391999999999999993e+01 5.000000000000000000e+00 2.348000000000000043e+01
7.000000000000000000e+00 8.000000000000000000e+00 1.291999999999999993e+01 1.400000000000000000e+01 4.940000000000000391e+00 2.285999999999999943e+01
7.000000000000000000e+00 8.000000000000000000e+00 1.200000000000000000e+01 1.324000000000000021e+01 4.660000000000000142e+00 2.280000000000000071e+01
7.000000000000000000e+00 8.000000000000000000e+00 1.200000000000000000e+01 1.398000000000000043e+01 4.900000000000000355e+00 2.300000000000000000e+01
7.000000000000000000e+00 8.000000000000000000e+00 1.200000000000000000e+01 1.480000000000000071e+01 4.940000000000000391e+00 2.178000000000000114e+01
7.000000000000000000e+00 8.000000000000000000e+00 1.117999999999999972e+01 1.451999999999999957e+01 5.000000000000000000e+00 2.100000000000000000e+01
7.000000000000000000e+00 8.000000000000000000e+00 1.100000000000000000e+01 1.430000000000000071e+01 5.000000000000000000e+00 2.100000000000000000e+01
7.000000000000000000e+00 7.080000000000000071e+00 1.100000000000000000e+01 1.408000000000000007e+01 5.759999999999999787e+00 2.182000000000000028e+01
7.000000000000000000e+00 8.000000000000000000e+00 1.080000000000000071e+01 1.500000000000000000e+01 6.000000000000000000e+00 2.300000000000000000e+01
7.000000000000000000e+00 7.700000000000000178e+00 1.100000000000000000e+01 1.500000000000000000e+01 6.000000000000000000e+00 2.278000000000000114e+01
7.500000000000000000e+00 7.839999999999999858e+00 1.100000000000000000e+01 1.580000000000000071e+01 6.019999999999999574e+00 2.310000000000000142e+01
8.000000000000000000e+00 7.219999999999999751e+00 1.100000000000000000e+01 1.600000000000000000e+01 7.000000000000000000e+00 2.346000000000000085e+01
8.000000000000000000e+00 7.339999999999999858e+00 1.174000000000000021e+01 1.707999999999999829e+01 7.000000000000000000e+00 2.262000000000000099e+01
8.000000000000000000e+00 8.000000000000000000e+00 1.214000000000000057e+01 1.801999999999999957e+01 7.139999999999999680e+00 2.300000000000000000e+01
8.000000000000000000e+00 8.000000000000000000e+00 1.216000000000000014e+01 1.930000000000000071e+01 7.940000000000000391e+00 2.198000000000000043e+01
8.000000000000000000e+00 8.000000000000000000e+00 1.274000000000000021e+01 2.139999999999999858e+01 9.019999999999999574e+00 2.176000000000000156e+01
8.000000000000000000e+00 8.000000000000000000e+00 1.300000000000000000e+01 2.339999999999999858e+01 1.051999999999999957e+01 2.264000000000000057e+01
8.000000000000000000e+00 8.380000000000000782e+00 1.300000000000000000e+01 2.421999999999999886e+01 1.100000000000000000e+01 2.273999999999999844e+01
1.900000000000000000e+01 2.130000000000000071e+01 9.000000000000000000e+00 1.182000000000000028e+01 4.700000000000000178e+00 2.000000000000000000e+01
2.273999999999999844e+01 2.539999999999999858e+01 1.033999999999999986e+01 1.435999999999999943e+01 5.219999999999999751e+00 2.437999999999999901e+01
3.325999999999999801e+01 3.564000000000000057e+01 1.503999999999999915e+01 1.689999999999999858e+01 8.060000000000000497e+00 3.384000000000000341e+01
3.646000000000000085e+01 4.085999999999999943e+01 1.842000000000000171e+01 1.957999999999999829e+01 1.111999999999999922e+01 3.875999999999999801e+01
4.217999999999999972e+01 4.520000000000000284e+01 2.050000000000000000e+01 2.150000000000000000e+01 1.540000000000000036e+01 4.185999999999999943e+01
4.510000000000000142e+01 4.817999999999999972e+01 2.148000000000000043e+01 2.426000000000000156e+01 1.780000000000000071e+01 4.379999999999999716e+01
4.846000000000000085e+01 5.028000000000000114e+01 2.264000000000000057e+01 2.655999999999999872e+01 1.900000000000000000e+01 4.500000000000000000e+01
5.507999999999999829e+01 5.147999999999999687e+01 2.360000000000000142e+01 2.782000000000000028e+01 1.948000000000000043e+01 4.570000000000000284e+01
5.815999999999999659e+01 5.471999999999999886e+01 2.432000000000000028e+01 2.844000000000000128e+01 2.000000000000000000e+01 4.682000000000000028e+01
6.067999999999999972e+01 5.788000000000000256e+01 2.500000000000000000e+01 2.900000000000000000e+01 2.000000000000000000e+01 4.884000000000000341e+01
6.206000000000000227e+01 5.885999999999999943e+01 2.500000000000000000e+01 2.980000000000000071e+01 2.094000000000000128e+01 4.960000000000000142e+01
6.220000000000000284e+01 5.767999999999999972e+01 2.469999999999999929e+01 2.989999999999999858e+01 2.100000000000000000e+01 4.915999999999999659e+01
5.771999999999999886e+01 5.189999999999999858e+01 2.266000000000000014e+01 3.030000000000000071e+01 2.303999999999999915e+01 4.564000000000000057e+01
5.617999999999999972e+01 4.800000000000000000e+01 2.069999999999999929e+01 3.214000000000000057e+01 2.567999999999999972e+01 4.246000000000000085e+01
5.243999999999999773e+01 4.538000000000000256e+01 2.037999999999999901e+01 3.261999999999999744e+01 2.642000000000000171e+01 4.047999999999999687e+01
5.264000000000000057e+01 4.735999999999999943e+01 2.012000000000000099e+01 3.182000000000000028e+01 2.787999999999999901e+01 4.132000000000000028e+01
5.114000000000000057e+01 4.685999999999999943e+01 2.083999999999999986e+01 3.202000000000000313e+01 2.821999999999999886e+01 4.238000000000000256e+01
5.021999999999999886e+01 4.888000000000000256e+01 2.278000000000000114e+01 3.367999999999999972e+01 2.989999999999999858e+01 4.411999999999999744e+01
5.107999999999999829e+01 4.706000000000000227e+01 2.485999999999999943e+01 3.461999999999999744e+01 3.128000000000000114e+01 4.650000000000000000e+01
5.070000000000000284e+01 4.402000000000000313e+01 2.583999999999999986e+01 3.567999999999999972e+01 3.200000000000000000e+01 4.524000000000000199e+01
5.182000000000000028e+01 4.582000000000000028e+01 2.682000000000000028e+01 3.685999999999999943e+01 3.421999999999999886e+01 4.625999999999999801e+01
5.435999999999999943e+01 4.843999999999999773e+01 2.817999999999999972e+01 3.842000000000000171e+01 3.561999999999999744e+01 4.789999999999999858e+01
5.817999999999999972e+01 5.125999999999999801e+01 2.900000000000000000e+01 3.892000000000000171e+01 3.575999999999999801e+01 4.850000000000000000e+01
6.189999999999999858e+01 5.352000000000000313e+01 2.900000000000000000e+01 3.884000000000000341e+01 3.465999999999999659e+01 5.007999999999999829e+01
6.698000000000000398e+01 5.375999999999999801e+01 2.917999999999999972e+01 3.907999999999999829e+01 3.465999999999999659e+01 5.097999999999999687e+01
6.901999999999999602e+01 5.207999999999999829e+01 2.967999999999999972e+01 4.074000000000000199e+01 3.400000000000000000e+01 5.029999999999999716e+01
7.085999999999999943e+01 5.434000000000000341e+01 2.900000000000000000e+01 4.206000000000000227e+01 3.411999999999999744e+01 5.214000000000000057e+01
6.993999999999999773e+01 5.407999999999999829e+01 2.748000000000000043e+01 4.196000000000000085e+01 3.338000000000000256e+01 5.228000000000000114e+01
6.884000000000000341e+01 5.410000000000000142e+01 2.569999999999999929e+01 4.200000000000000000e+01 3.329999999999999716e+01 5.067999999999999972e+01
6.764000000000000057e+01 5.502000000000000313e+01 2.423999999999999844e+01 4.196000000000000085e+01 3.253999999999999915e+01 5.296000000000000085e+01
6.726000000000000512e+01 5.500000000000000000e+01 2.382000000000000028e+01 4.092000000000000171e+01 3.103999999999999915e+01 5.442000000000000171e+01
6.609999999999999432e+01 5.460000000000000142e+01 2.264000000000000057e+01 3.982000000000000028e+01 3.037999999999999901e+01 5.703999999999999915e+01
6.306000000000000227e+01 5.415999999999999659e+01 2.146000000000000085e+01 4.043999999999999773e+01 2.880000000000000071e+01 6.520000000000000284e+01
6.011999999999999744e+01 5.271999999999999886e+01 2.069999999999999929e+01 3.978000000000000114e+01 2.796000000000000085e+01 7.021999999999999886e+01
5.474000000000000199e+01 5.257999999999999829e+01 1.978000000000000114e+01 3.935999999999999943e+01 2.566000000000000014e+01 7.026000000000000512e+01
5.197999999999999687e+01 5.367999999999999972e+01 1.900000000000000000e+01 3.815999999999999659e+01 2.428000000000000114e+01 7.478000000000000114e+01
4.892000000000000171e+01 5.111999999999999744e+01 1.826000000000000156e+01 3.535999999999999943e+01 2.342000000000000171e+01 7.254000000000000625e+01
4.414000000000000057e+01 4.920000000000000284e+01 1.687999999999999901e+01 3.282000000000000028e+01 2.212000000000000099e+01 7.065999999999999659e+01
4.000000000000000000e+01 4.750000000000000000e+01 1.605999999999999872e+01 3.128000000000000114e+01 2.067999999999999972e+01 7.001999999999999602e+01
3.900000000000000000e+01 4.496000000000000085e+01 1.498000000000000043e+01 3.001999999999999957e+01 1.964000000000000057e+01 6.779999999999999716e+01
7.129999999999999716e+01 5.200000000000000000e+01 2.583999999999999986e+01 3.815999999999999659e+01 2.800000000000000000e+01 4.150000000000000000e+01
6.601999999999999602e+01 5.078000000000000114e+01 2.480000000000000071e+01 3.582000000000000028e+01 2.769999999999999929e+01 4.024000000000000199e+01
6.157999999999999829e+01 4.982000000000000028e+01 2.451999999999999957e+01 3.375999999999999801e+01 2.635999999999999943e+01 4.282000000000000028e+01
5.729999999999999716e+01 4.838000000000000256e+01 2.337999999999999901e+01 3.211999999999999744e+01 2.398000000000000043e+01 4.343999999999999773e+01
5.520000000000000284e+01 4.785999999999999943e+01 2.285999999999999943e+01 3.164000000000000057e+01 2.394000000000000128e+01 4.356000000000000227e+01
5.129999999999999716e+01 4.560000000000000142e+01 2.312000000000000099e+01 4.111999999999999744e+01 2.785999999999999943e+01 4.235999999999999943e+01
4.907999999999999829e+01 4.553999999999999915e+01 2.280000000000000071e+01 4.935999999999999943e+01 3.180000000000000071e+01 4.102000000000000313e+01
4.664000000000000057e+01 4.474000000000000199e+01 2.264000000000000057e+01 5.234000000000000341e+01 3.279999999999999716e+01 4.132000000000000028e+01
4.575999999999999801e+01 4.432000000000000028e+01 2.303999999999999915e+01 5.729999999999999716e+01 3.435999999999999943e+01 4.064000000000000057e+01
4.700000000000000000e+01 4.528000000000000114e+01 2.566000000000000014e+01 5.892000000000000171e+01 3.688000000000000256e+01 3.939999999999999858e+01
4.647999999999999687e+01 4.402000000000000313e+01 2.651999999999999957e+01 6.454000000000000625e+01 4.060000000000000142e+01 4.175999999999999801e+01
4.588000000000000256e+01 4.275999999999999801e+01 2.700000000000000000e+01 6.887999999999999545e+01 4.217999999999999972e+01 4.492000000000000171e+01
4.450000000000000000e+01 4.107999999999999829e+01 2.700000000000000000e+01 6.950000000000000000e+01 4.300000000000000000e+01 4.243999999999999773e+01
4.517999999999999972e+01 4.257999999999999829e+01 2.700000000000000000e+01 7.050000000000000000e+01 4.300000000000000000e+01 4.152000000000000313e+01
4.400000000000000000e+01 4.100000000000000000e+01 2.698000000000000043e+01 6.943999999999999773e+01 4.224000000000000199e+01 4.100000000000000000e+01
4.320000000000000284e+01 4.100000000000000000e+01 2.492000000000000171e+01 6.401999999999999602e+01 3.871999999999999886e+01 3.985999999999999943e+01
4.097999999999999687e+01 3.939999999999999858e+01 2.400000000000000000e+01 5.747999999999999687e+01 3.529999999999999716e+01 3.925999999999999801e+01
3.582000000000000028e+01 3.582000000000000028e+01 2.360000000000000142e+01 5.361999999999999744e+01 3.347999999999999687e+01 3.810000000000000142e+01
3.284000000000000341e+01 3.338000000000000256e+01 2.296000000000000085e+01 4.821999999999999886e+01 3.162000000000000099e+01 3.729999999999999716e+01
2.892000000000000171e+01 3.083999999999999986e+01 1.964000000000000057e+01 4.528000000000000114e+01 2.817999999999999972e+01 3.597999999999999687e+01
2.800000000000000000e+01 2.921999999999999886e+01 1.789999999999999858e+01 3.634000000000000341e+01 2.166000000000000014e+01 3.116000000000000014e+01
2.683999999999999986e+01 2.883999999999999986e+01 1.648000000000000043e+01 2.694000000000000128e+01 1.814000000000000057e+01 2.519999999999999929e+01
2.276000000000000156e+01 2.655999999999999872e+01 1.441999999999999993e+01 2.251999999999999957e+01 1.527999999999999936e+01 2.294000000000000128e+01
1.900000000000000000e+01 2.098000000000000043e+01 1.366000000000000014e+01 1.867999999999999972e+01 1.346000000000000085e+01 2.014000000000000057e+01
1.764000000000000057e+01 1.939999999999999858e+01 1.300000000000000000e+01 1.653999999999999915e+01 1.241999999999999993e+01 1.948000000000000043e+01
1.598000000000000043e+01 1.764000000000000057e+01 1.167999999999999972e+01 1.585999999999999943e+01 1.150000000000000000e+01 1.869999999999999929e+01
1.446000000000000085e+01 1.600000000000000000e+01 1.100000000000000000e+01 1.333999999999999986e+01 1.100000000000000000e+01 1.567999999999999972e+01
1.241999999999999993e+01 1.533999999999999986e+01 9.439999999999999503e+00 1.300000000000000000e+01 1.008000000000000007e+01 1.400000000000000000e+01
1.101999999999999957e+01 1.458000000000000007e+01 8.839999999999999858e+00 1.216000000000000014e+01 1.000000000000000000e+01 1.269999999999999929e+01
1.033999999999999986e+01 1.285999999999999943e+01 8.000000000000000000e+00 1.117999999999999972e+01 9.160000000000000142e+00 1.127999999999999936e+01
8.859999999999999432e+00 1.159999999999999964e+01 7.280000000000000249e+00 8.679999999999999716e+00 8.740000000000000213e+00 9.779999999999999361e+00
6.000000000000000000e+00 1.000000000000000000e+01 6.360000000000000320e+00 7.280000000000000249e+00 6.820000000000000284e+00 8.519999999999999574e+00
6.000000000000000000e+00 8.759999999999999787e+00 5.240000000000000213e+00 6.500000000000000000e+00 6.000000000000000000e+00 7.299999999999999822e+00
5.099999999999999645e+00 7.580000000000000071e+00 4.179999999999999716e+00 5.959999999999999964e+00 5.160000000000000142e+00 5.879999999999999893e+00
4.419999999999999929e+00 6.299999999999999822e+00 3.299999999999999822e+00 5.160000000000000142e+00 5.000000000000000000e+00 3.660000000000000142e+00
4.000000000000000000e+00 4.480000000000000426e+00 2.720000000000000195e+00 5.000000000000000000e+00 5.000000000000000000e+00 3.000000000000000000e+00
4.000000000000000000e+00 4.000000000000000000e+00 2.000000000000000000e+00 4.059999999999999609e+00 5.000000000000000000e+00 2.640000000000000124e+00
4.000000000000000000e+00 4.000000000000000000e+00 2.000000000000000000e+00 4.000000000000000000e+00 5.000000000000000000e+00 1.060000000000000053e+00
3.600000000000000089e+00 3.319999999999999840e+00 2.000000000000000000e+00 4.000000000000000000e+00 5.000000000000000000e+00 1.000000000000000000e+00
3.000000000000000000e+00 3.000000000000000000e+00 2.000000000000000000e+00 4.000000000000000000e+00 4.660000000000000142e+00 1.000000000000000000e+00
2.000000000000000000e+00 2.000000000000000000e+00 1.200000000000000000e+01 5.000000000000000000e+00 0.000000000000000000e+00 2.000000000000000000e+00
2.000000000000000000e+00 2.000000000000000000e+00 1.200000000000000000e+01 5.000000000000000000e+00 0.000000000000000000e+00 1.800000000000000044e+00
2.000000000000000000e+00 2.000000000000000000e+00 1.167999999999999972e+01 5.000000000000000000e+00 0.000000000000000000e+00 1.000000000000000000e+00
2.000000000000000000e+00 2.000000000000000000e+00 1.100000000000000000e+01 5.000000000000000000e+00 0.000000000000000000e+00 1.000000000000000000e+00
2.000000000000000000e+00 2.000000000000000000e+00 1.064000000000000057e+01 5.000000000000000000e+00 0.000000000000000000e+00 1.000000000000000000e+00
2.000000000000000000e+00 2.000000000000000000e+00 1.000000000000000000e+01 4.339999999999999858e+00 0.000000000000000000e+00 1.000000000000000000e+00
2.000000000000000000e+00 2.000000000000000000e+00 1.000000000000000000e+01 4.000000000000000000e+00 0.000000000000000000e+00 1.000000000000000000e+00
2.000000000000000000e+00 2.000000000000000000e+00 1.000000000000000000e+01 4.000000000000000000e+00 0.000000000000000000e+00 1.000000000000000000e+00
2.000000000000000000e+00 2.000000000000000000e+00 1.040000000000000036e+01 4.000000000000000000e+00 0.000000000000000000e+00 1.000000000000000000e+00
2.000000000000000000e+00 2.000000000000000000e+00 1.100000000000000000e+01 4.000000000000000000e+00 0.000000000000000000e+00 1.000000000000000000e+00
2.000000000000000000e+00 2.000000000000000000e+00 1.040000000000000036e+01 4.000000000000000000e+00 0.000000000000000000e+00 1.000000000000000000e+00
2.000000000000000000e+00 2.000000000000000000e+00 1.069999999999999929e+01 4.000000000000000000e+00 0.000000000000000000e+00 1.000000000000000000e+00
1.939999999999999947e+00 2.000000000000000000e+00 1.000000000000000000e+01 4.000000000000000000e+00 0.000000000000000000e+00 1.000000000000000000e+00
1.820000000000000062e+00 2.000000000000000000e+00 1.053999999999999915e+01 4.000000000000000000e+00 0.000000000000000000e+00 1.199999999999999956e+00
1.340000000000000080e+00 2.000000000000000000e+00 1.033999999999999986e+01 4.000000000000000000e+00 0.000000000000000000e+00 2.000000000000000000e+00
1.000000000000000000e+00 2.000000000000000000e+00 1.093999999999999950e+01 4.000000000000000000e+00 0.000000000000000000e+00 1.959999999999999964e+00
1.000000000000000000e+00 2.000000000000000000e+00 1.090000000000000036e+01 4.000000000000000000e+00 0.000000000000000000e+00 1.000000000000000000e+00
1.159999999999999920e+00 2.000000000000000000e+00 1.100000000000000000e+01 4.000000000000000000e+00 0.000000000000000000e+00 1.000000000000000000e+00
2.000000000000000000e+00 2.000000000000000000e+00 1.050000000000000000e+01 4.740000000000000213e+00 0.000000000000000000e+00 1.800000000000000044e+00
2.000000000000000000e+00 2.000000000000000000e+00 1.100000000000000000e+01 5.000000000000000000e+00 0.000000000000000000e+00 1.939999999999999947e+00
2.000000000000000000e+00 2.000000000000000000e+00 1.100000000000000000e+01 5.000000000000000000e+00 0.000000000000000000e+00 1.679999999999999938e+00
2.000000000000000000e+00 2.000000000000000000e+00 1.100000000000000000e+01 5.000000000000000000e+00 0.000000000000000000e+00 2.000000000000000000e+00
2.000000000000000000e+00 2.000000000000000000e+00 1.100000000000000000e+01 5.000000000000000000e+00 0.000000000000000000e+00 2.000000000000000000e+00
2.000000000000000000e+00 2.000000000000000000e+00 1.100000000000000000e+01 5.000000000000000000e+00 0.000000000000000000e+00 2.000000000000000000e+00
2.000000000000000000e+00 2.000000000000000000e+00 1.096000000000000085e+01 5.000000000000000000e+00 0.000000000000000000e+00 2.000000000000000000e+00
2.000000000000000000e+00 2.000000000000000000e+00 1.080000000000000071e+01 5.000000000000000000e+00 0.000000000000000000e+00 2.000000000000000000e+00
2.000000000000000000e+00 2.000000000000000000e+00 1.038000000000000078e+01 5.000000000000000000e+00 2.000000000000000111e-01 2.000000000000000000e+00
2.000000000000000000e+00 2.000000000000000000e+00 1.000000000000000000e+01 5.000000000000000000e+00 1.000000000000000000e+00 2.000000000000000000e+00
2.000000000000000000e+00 2.000000000000000000e+00 1.000000000000000000e+01 5.019999999999999574e+00 1.000000000000000000e+00 2.000000000000000000e+00
2.000000000000000000e+00 2.000000000000000000e+00 1.000000000000000000e+01 5.980000000000000426e+00 1.000000000000000000e+00 2.000000000000000000e+00
2.000000000000000000e+00 2.000000000000000000e+00 1.030000000000000071e+01 6.000000000000000000e+00 1.000000000000000000e+00 2.000000000000000000e+00
2.000000000000000000e+00 2.000000000000000000e+00 1.100000000000000000e+01 6.000000000000000000e+00 1.000000000000000000e+00 2.000000000000000000e+00
2.000000000000000000e+00 2.000000000000000000e+00 1.106000000000000050e+01 6.000000000000000000e+00 1.000000000000000000e+00 2.000000000000000000e+00
2.339999999999999858e+00 2.000000000000000000e+00 1.296000000000000085e+01 6.240000000000000213e+00 1.000000000000000000e+00 2.419999999999999929e+00
3.000000000000000000e+00 2.000000000000000000e+00 1.762000000000000099e+01 7.000000000000000000e+00 1.000000000000000000e+00 3.000000000000000000e+00
3.000000000000000000e+00 2.000000000000000000e+00 1.805999999999999872e+01 7.000000000000000000e+00 1.000000000000000000e+00 3.279999999999999805e+00
3.000000000000000000e+00 2.000000000000000000e+00 1.900000000000000000e+01 7.000000000000000000e+00 1.419999999999999929e+00 4.000000000000000000e+00
3.000000000000000000e+00 2.000000000000000000e+00 1.900000000000000000e+01 7.000000000000000000e+00 1.000000000000000000e+00 4.000000000000000000e+00
2.500000000000000000e+00 2.000000000000000000e+00 1.900000000000000000e+01 6.959999999999999964e+00 1.000000000000000000e+00 3.100000000000000089e+00
2.000000000000000000e+00 2.000000000000000000e+00 1.814000000000000057e+01 6.000000000000000000e+00 1.000000000000000000e+00 3.560000000000000053e+00
2.000000000000000000e+00 2.000000000000000000e+00 1.100000000000000000e+01 5.179999999999999716e+00 1.219999999999999973e+00 1.000000000000000000e+00
2.000000000000000000e+00 2.000000000000000000e+00 1.167999999999999972e+01 6.000000000000000000e+00 2.000000000000000000e+00 1.000000000000000000e+00
2.000000000000000000e+00 2.180000000000000160e+00 1.200000000000000000e+01 6.000000000000000000e+00 1.500000000000000000e+00 1.000000000000000000e+00
2.000000000000000000e+00 3.000000000000000000e+00 1.280000000000000071e+01 6.000000000000000000e+00 1.000000000000000000e+00 1.340000000000000080e+00
2.000000000000000000e+00 3.000000000000000000e+00 1.300000000000000000e+01 6.000000000000000000e+00 1.000000000000000000e+00 2.000000000000000000e+00
2.439999999999999947e+00 3.000000000000000000e+00 1.300000000000000000e+01 6.419999999999999929e+00 1.000000000000000000e+00 1.580000000000000071e+00
3.000000000000000000e+00 3.000000000000000000e+00 1.300000000000000000e+01 7.000000000000000000e+00 1.000000000000000000e+00 1.000000000000000000e+00
3.000000000000000000e+00 3.000000000000000000e+00 1.300000000000000000e+01 7.000000000000000000e+00 1.000000000000000000e+00 1.000000000000000000e+00
3.000000000000000000e+00 3.000000000000000000e+00 1.300000000000000000e+01 7.000000000000000000e+00 1.000000000000000000e+00 1.000000000000000000e+00
3.000000000000000000e+00 3.000000000000000000e+00 1.300000000000000000e+01 7.000000000000000000e+00 1.000000000000000000e+00 1.000000000000000000e+00
3.000000000000000000e+00 3.000000000000000000e+00 1.327999999999999936e+01 6.780000000000000249e+00 8.000000000000000444e-01 1.000000000000000000e+00
3.000000000000000000e+00 3.000000000000000000e+00 1.393999999999999950e+01 6.000000000000000000e+00 0.000000000000000000e+00 1.399999999999999911e+00
3.000000000000000000e+00 3.000000000000000000e+00 1.430000000000000071e+01 6.000000000000000000e+00 0.000000000000000000e+00 2.000000000000000000e+00
3.000000000000000000e+00 2.939999999999999947e+00 1.400000000000000000e+01 6.000000000000000000e+00 0.000000000000000000e+00 2.000000000000000000e+00
3.000000000000000000e+00 3.000000000000000000e+00 1.464000000000000057e+01 6.000000000000000000e+00 0.000000000000000000e+00 2.000000000000000000e+00
3.000000000000000000e+00 3.000000000000000000e+00 1.514000000000000057e+01 6.000000000000000000e+00 0.000000000000000000e+00 2.000000000000000000e+00
3.000000000000000000e+00 3.000000000000000000e+00 1.558000000000000007e+01 6.000000000000000000e+00 0.000000000000000000e+00 2.000000000000000000e+00
3.000000000000000000e+00 3.000000000000000000e+00 1.590000000000000036e+01 6.000000000000000000e+00 0.000000000000000000e+00 2.000000000000000000e+00
3.000000000000000000e+00 3.000000000000000000e+00 1.600000000000000000e+01 6.000000000000000000e+00 9.000000000000000222e-01 2.000000000000000000e+00
3.000000000000000000e+00 3.000000000000000000e+00 1.600000000000000000e+01 6.000000000000000000e+00 1.000000000000000000e+00 2.000000000000000000e+00
3.000000000000000000e+00 3.000000000000000000e+00 1.600000000000000000e+01 6.000000000000000000e+00 1.000000000000000000e+00 2.000000000000000000e+00
3.000000000000000000e+00 3.000000000000000000e+00 1.600000000000000000e+01 6.000000000000000000e+00 1.000000000000000000e+00 2.000000000000000000e+00
3.000000000000000000e+00 3.000000000000000000e+00 1.553999999999999915e+01 6.580000000000000071e+00 1.000000000000000000e+00 2.000000000000000000e+00
3.000000000000000000e+00 3.000000000000000000e+00 1.516000000000000014e+01 7.000000000000000000e+00 1.000000000000000000e+00 2.000000000000000000e+00
3.000000000000000000e+00 3.000000000000000000e+00 1.509999999999999964e+01 7.000000000000000000e+00 1.000000000000000000e+00 2.000000000000000000e+00
3.000000000000000000e+00 3.000000000000000000e+00 1.438000000000000078e+01 7.000000000000000000e+00 1.000000000000000000e+00 2.000000000000000000e+00
3.000000000000000000e+00 3.000000000000000000e+00 1.475999999999999979e+01 7.000000000000000000e+00 1.000000000000000000e+00 2.000000000000000000e+00
3.000000000000000000e+00 3.000000000000000000e+00 1.496000000000000085e+01 7.000000000000000000e+00 1.000000000000000000e+00 2.000000000000000000e+00
3.000000000000000000e+00 3.000000000000000000e+00 1.500000000000000000e+01 7.000000000000000000e+00 1.000000000000000000e+00 2.000000000000000000e+00
3.000000000000000000e+00 3.000000000000000000e+00 1.500000000000000000e+01 7.500000000000000000e+00 1.639999999999999902e+00 2.000000000000000000e+00
3.839999999999999858e+00 3.000000000000000000e+00 1.441999999999999993e+01 8.000000000000000000e+00 2.000000000000000000e+00 2.479999999999999982e+00
4.000000000000000000e+00 3.000000000000000000e+00 1.400000000000000000e+01 8.000000000000000000e+00 2.000000000000000000e+00 3.000000000000000000e+00
3.740000000000000213e+00 3.000000000000000000e+00 1.443999999999999950e+01 8.000000000000000000e+00 2.000000000000000000e+00 3.000000000000000000e+00
3.000000000000000000e+00 3.000000000000000000e+00 1.400000000000000000e+01 7.780000000000000249e+00 2.000000000000000000e+00 3.000000000000000000e+00
3.000000000000000000e+00 3.000000000000000000e+00 1.400000000000000000e+01 7.660000000000000142e+00 2.000000000000000000e+00 3.000000000000000000e+00
3.000000000000000000e+00 3.000000000000000000e+00 1.308000000000000007e+01 8.000000000000000000e+00 2.000000000000000000e+00 3.000000000000000000e+00
3.000000000000000000e+00 3.000000000000000000e+00 1.300000000000000000e+01 8.000000000000000000e+00 2.000000000000000000e+00 3.000000000000000000e+00
3.000000000000000000e+00 3.000000000000000000e+00 1.300000000000000000e+01 8.060000000000000497e+00 2.000000000000000000e+00 3.000000000000000000e+00
3.000000000000000000e+00 3.000000000000000000e+00 1.300000000000000000e+01 8.000000000000000000e+00 2.000000000000000000e+00 3.000000000000000000e+00
3.000000000000000000e+00 3.000000000000000000e+00 1.217999999999999972e+01 8.000000000000000000e+00 2.000000000000000000e+00 3.000000000000000000e+00
2.359999999999999876e+00 4.000000000000000000e+00 4.440000000000000391e+00 7.000000000000000000e+00 2.000000000000000000e+00 1.676000000000000156e+01
3.000000000000000000e+00 4.019999999999999574e+00 5.259999999999999787e+00 8.220000000000000639e+00 2.299999999999999822e+00 1.905999999999999872e+01
3.319999999999999840e+00 5.000000000000000000e+00 6.719999999999999751e+00 1.001999999999999957e+01 3.279999999999999805e+00 2.062000000000000099e+01
4.879999999999999893e+00 6.679999999999999716e+00 7.000000000000000000e+00 1.200000000000000000e+01 4.459999999999999964e+00 3.042000000000000171e+01
6.000000000000000000e+00 7.900000000000000355e+00 7.740000000000000213e+00 1.288000000000000078e+01 5.059999999999999609e+00 3.303999999999999915e+01
6.000000000000000000e+00 8.000000000000000000e+00 8.119999999999999218e+00 1.400000000000000000e+01 6.000000000000000000e+00 3.392000000000000171e+01
6.700000000000000178e+00 8.140000000000000568e+00 9.000000000000000000e+00 1.411999999999999922e+01 6.000000000000000000e+00 3.420000000000000284e+01
7.000000000000000000e+00 9.000000000000000000e+00 9.240000000000000213e+00 1.500000000000000000e+01 6.000000000000000000e+00 3.582000000000000028e+01
7.000000000000000000e+00 9.000000000000000000e+00 1.000000000000000000e+01 1.500000000000000000e+01 6.000000000000000000e+00 3.650000000000000000e+01
7.000000000000000000e+00 9.000000000000000000e+00 1.000000000000000000e+01 1.553999999999999915e+01 6.000000000000000000e+00 3.700000000000000000e+01
7.000000000000000000e+00 9.000000000000000000e+00 1.000000000000000000e+01 1.572000000000000064e+01 6.000000000000000000e+00 3.656000000000000227e+01
7.000000000000000000e+00 9.000000000000000000e+00 9.759999999999999787e+00 1.550000000000000000e+01 6.160000000000000142e+00 3.624000000000000199e+01
7.000000000000000000e+00 8.839999999999999858e+00 9.000000000000000000e+00 1.469999999999999929e+01 6.200000000000000178e+00 3.600000000000000000e+01
6.339999999999999858e+00 7.280000000000000249e+00 9.000000000000000000e+00 1.361999999999999922e+01 6.000000000000000000e+00 2.821999999999999886e+01
5.059999999999999609e+00 6.120000000000000107e+00 9.000000000000000000e+00 1.300000000000000000e+01 5.860000000000000320e+00 2.537999999999999901e+01
5.000000000000000000e+00 5.820000000000000284e+00 9.039999999999999147e+00 1.300000000000000000e+01 5.000000000000000000e+00 2.473999999999999844e+01
5.000000000000000000e+00 5.160000000000000142e+00 9.000000000000000000e+00 1.300000000000000000e+01 5.000000000000000000e+00 2.435999999999999943e+01
5.120000000000000107e+00 5.620000000000000107e+00 9.000000000000000000e+00 1.300000000000000000e+01 5.000000000000000000e+00 2.385999999999999943e+01
5.740000000000000213e+00 5.980000000000000426e+00 9.000000000000000000e+00 1.300000000000000000e+01 5.000000000000000000e+00 2.396000000000000085e+01
5.740000000000000213e+00 5.500000000000000000e+00 9.800000000000000711e+00 1.248000000000000043e+01 5.000000000000000000e+00 2.382000000000000028e+01
5.440000000000000391e+00 5.000000000000000000e+00 9.000000000000000000e+00 1.200000000000000000e+01 5.000000000000000000e+00 2.326000000000000156e+01
5.759999999999999787e+00 5.000000000000000000e+00 9.300000000000000711e+00 1.200000000000000000e+01 4.019999999999999574e+00 2.317999999999999972e+01
5.200000000000000178e+00 5.000000000000000000e+00 1.000000000000000000e+01 1.200000000000000000e+01 4.000000000000000000e+00 2.353999999999999915e+01
5.959999999999999964e+00 5.000000000000000000e+00 1.000000000000000000e+01 1.200000000000000000e+01 3.839999999999999858e+00 2.300000000000000000e+01
5.000000000000000000e+00 5.000000000000000000e+00 1.000000000000000000e+01 1.196000000000000085e+01 3.000000000000000000e+00 2.360000000000000142e+01
5.000000000000000000e+00 5.000000000000000000e+00 1.000000000000000000e+01 1.100000000000000000e+01 3.000000000000000000e+00 2.400000000000000000e+01
5.000000000000000000e+00 5.000000000000000000e+00 1.000000000000000000e+01 1.100000000000000000e+01 3.000000000000000000e+00 2.400000000000000000e+01
5.000000000000000000e+00 5.000000000000000000e+00 1.000000000000000000e+01 1.100000000000000000e+01 3.000000000000000000e+00 2.289999999999999858e+01
5.000000000000000000e+00 5.000000000000000000e+00 1.041999999999999993e+01 1.100000000000000000e+01 3.000000000000000000e+00 2.219999999999999929e+01
5.000000000000000000e+00 5.000000000000000000e+00 1.000000000000000000e+01 1.100000000000000000e+01 3.000000000000000000e+00 2.242000000000000171e+01
5.000000000000000000e+00 5.000000000000000000e+00 1.008000000000000007e+01 1.100000000000000000e+01 3.000000000000000000e+00 2.253999999999999915e+01
5.000000000000000000e+00 5.000000000000000000e+00 1.066000000000000014e+01 1.138000000000000078e+01 3.939999999999999947e+00 2.167999999999999972e+01
5.000000000000000000e+00 5.000000000000000000e+00 1.100000000000000000e+01 1.248000000000000043e+01 4.000000000000000000e+00 2.042000000000000171e+01
5.000000000000000000e+00 5.000000000000000000e+00 1.100000000000000000e+01 1.269999999999999929e+01 4.000000000000000000e+00 2.114000000000000057e+01
5.000000000000000000e+00 5.679999999999999716e+00 1.077999999999999936e+01 1.217999999999999972e+01 4.200000000000000178e+00 2.039999999999999858e+01
5.000000000000000000e+00 6.980000000000000426e+00 1.159999999999999964e+01 1.208000000000000007e+01 5.000000000000000000e+00 2.016000000000000014e+01
5.139999999999999680e+00 7.000000000000000000e+00 1.290000000000000036e+01 1.300000000000000000e+01 5.000000000000000000e+00 2.166000000000000014e+01
6.000000000000000000e+00 7.000000000000000000e+00 1.288000000000000078e+01 1.396000000000000085e+01 5.000000000000000000e+00 2.133999999999999986e+01
6.000000000000000000e+00 7.000000000000000000e+00 1.301999999999999957e+01 1.474000000000000021e+01 5.219999999999999751e+00 2.248000000000000043e+01
6.000000000000000000e+00 7.000000000000000000e+00 1.400000000000000000e+01 1.500000000000000000e+01 5.860000000000000320e+00 2.207999999999999829e+01
4.500000000000000000e+00 3.000000000000000000e+00 2.000000000000000000e+00 1.000000000000000000e+00 0.000000000000000000e+00 1.000000000000000000e+00
4.419999999999999929e+00 3.000000000000000000e+00 2.000000000000000000e+00 1.000000000000000000e+00 0.000000000000000000e+00 1.000000000000000000e+00
4.580000000000000071e+00 2.779999999999999805e+00 2.000000000000000000e+00 1.000000000000000000e+00 0.000000000000000000e+00 1.000000000000000000e+00
4.099999999999999645e+00 2.740000000000000213e+00 2.000000000000000000e+00 1.000000000000000000e+00 0.000000000000000000e+00 1.000000000000000000e+00
4.000000000000000000e+00 2.799999999999999822e+00 2.000000000000000000e+00 1.000000000000000000e+00 0.000000000000000000e+00 1.000000000000000000e+00
4.000000000000000000e+00 2.000000000000000000e+00 2.240000000000000213e+00 1.000000000000000000e+00 8.599999999999999867e-01 1.000000000000000000e+00
4.000000000000000000e+00 2.859999999999999876e+00 3.000000000000000000e+00 1.000000000000000000e+00 1.000000000000000000e+00 1.000000000000000000e+00
4.000000000000000000e+00 3.000000000000000000e+00 2.240000000000000213e+00 1.000000000000000000e+00 1.000000000000000000e+00 1.000000000000000000e+00
3.520000000000000018e+00 2.419999999999999929e+00 2.000000000000000000e+00 1.000000000000000000e+00 1.000000000000000000e+00 1.000000000000000000e+00
3.000000000000000000e+00 2.000000000000000000e+00 2.000000000000000000e+00 1.000000000000000000e+00 1.000000000000000000e+00 1.000000000000000000e+00
2.959999999999999964e+00 2.000000000000000000e+00 2.000000000000000000e+00 1.000000000000000000e+00 1.000000000000000000e+00 1.000000000000000000e+00
2.000000000000000000e+00 2.000000000000000000e+00 2.000000000000000000e+00 1.000000000000000000e+00 1.000000000000000000e+00 1.000000000000000000e+00
1.040000000000000036e+00 2.000000000000000000e+00 2.000000000000000000e+00 1.000000000000000000e+00 1.000000000000000000e+00 1.000000000000000000e+00
1.840000000000000080e+00 2.000000000000000000e+00 2.000000000000000000e+00 1.000000000000000000e+00 1.000000000000000000e+00 1.000000000000000000e+00
2.000000000000000000e+00 2.000000000000000000e+00 2.000000000000000000e+00 1.000000000000000000e+00 1.000000000000000000e+00 1.000000000000000000e+00
2.000000000000000000e+00 2.000000000000000000e+00 2.000000000000000000e+00 1.000000000000000000e+00 2.000000000000000111e-01 1.000000000000000000e+00
2.000000000000000000e+00 2.000000000000000000e+00 2.000000000000000000e+00 1.000000000000000000e+00 0.000000000000000000e+00 1.000000000000000000e+00
2.000000000000000000e+00 2.000000000000000000e+00 2.000000000000000000e+00 1.000000000000000000e+00 0.000000000000000000e+00 1.000000000000000000e+00
2.000000000000000000e+00 2.000000000000000000e+00 2.000000000000000000e+00 1.000000000000000000e+00 0.000000000000000000e+00 1.000000000000000000e+00
2.000000000000000000e+00 2.000000000000000000e+00 2.000000000000000000e+00 1.000000000000000000e+00 0.000000000000000000e+00 1.000000000000000000e+00
2.000000000000000000e+00 2.000000000000000000e+00 2.000000000000000000e+00 1.000000000000000000e+00 0.000000000000000000e+00 1.000000000000000000e+00
2.000000000000000000e+00 2.000000000000000000e+00 1.540000000000000036e+00 1.000000000000000000e+00 0.000000000000000000e+00 1.000000000000000000e+00
2.000000000000000000e+00 2.000000000000000000e+00 1.580000000000000071e+00 1.000000000000000000e+00 0.000000000000000000e+00 1.000000000000000000e+00
2.000000000000000000e+00 2.000000000000000000e+00 2.000000000000000000e+00 1.000000000000000000e+00 0.000000000000000000e+00 1.000000000000000000e+00
2.000000000000000000e+00 2.000000000000000000e+00 2.000000000000000000e+00 1.000000000000000000e+00 0.000000000000000000e+00 1.000000000000000000e+00
2.000000000000000000e+00 2.000000000000000000e+00 2.000000000000000000e+00 1.000000000000000000e+00 0.000000000000000000e+00 1.000000000000000000e+00
2.000000000000000000e+00 2.540000000000000036e+00 2.000000000000000000e+00 1.000000000000000000e+00 0.000000000000000000e+00 1.000000000000000000e+00
2.000000000000000000e+00 3.000000000000000000e+00 2.000000000000000000e+00 1.000000000000000000e+00 0.000000000000000000e+00 1.000000000000000000e+00
2.000000000000000000e+00 3.000000000000000000e+00 2.000000000000000000e+00 1.000000000000000000e+00 0.000000000000000000e+00 1.000000000000000000e+00
2.000000000000000000e+00 3.000000000000000000e+00 2.000000000000000000e+00 1.000000000000000000e+00 0.000000000000000000e+00 1.000000000000000000e+00
2.000000000000000000e+00 3.000000000000000000e+00 2.000000000000000000e+00 1.000000000000000000e+00 0.000000000000000000e+00 1.000000000000000000e+00
2.000000000000000000e+00 3.000000000000000000e+00 2.000000000000000000e+00 1.000000000000000000e+00 0.000000000000000000e+00 1.000000000000000000e+00
2.000000000000000000e+00 3.000000000000000000e+00 2.000000000000000000e+00 1.000000000000000000e+00 0.000000000000000000e+00 1.000000000000000000e+00
1.340000000000000080e+00 3.000000000000000000e+00 2.000000000000000000e+00 1.000000000000000000e+00 0.000000000000000000e+00 1.000000000000000000e+00
1.659999999999999920e+00 3.000000000000000000e+00 2.000000000000000000e+00 1.000000000000000000e+00 0.000000000000000000e+00 1.000000000000000000e+00
2.000000000000000000e+00 3.000000000000000000e+00 2.000000000000000000e+00 1.000000000000000000e+00 0.000000000000000000e+00 1.000000000000000000e+00
2.259999999999999787e+00 3.000000000000000000e+00 1.800000000000000044e+00 1.000000000000000000e+00 0.000000000000000000e+00 1.000000000000000000e+00
3.000000000000000000e+00 3.000000000000000000e+00 1.000000000000000000e+00 1.000000000000000000e+00 0.000000000000000000e+00 1.000000000000000000e+00
3.379999999999999893e+00 3.000000000000000000e+00 1.179999999999999938e+00 1.000000000000000000e+00 0.000000000000000000e+00 1.000000000000000000e+00
4.740000000000000213e+00 3.000000000000000000e+00 1.439999999999999947e+00 1.000000000000000000e+00 0.000000000000000000e+00 1.000000000000000000e+00
5.019999999999999574e+00 5.000000000000000000e+00 7.940000000000000391e+00 1.243999999999999950e+01 5.440000000000000391e+00 2.100000000000000000e+01
5.240000000000000213e+00 5.000000000000000000e+00 7.839999999999999858e+00 1.103999999999999915e+01 4.580000000000000071e+00 2.066000000000000014e+01
6.000000000000000000e+00 4.940000000000000391e+00 7.719999999999999751e+00 1.100000000000000000e+01 4.000000000000000000e+00 2.137999999999999901e+01
6.000000000000000000e+00 5.000000000000000000e+00 8.000000000000000000e+00 1.167999999999999972e+01 4.599999999999999645e+00 2.189999999999999858e+01
6.000000000000000000e+00 5.000000000000000000e+00 8.000000000000000000e+00 1.200000000000000000e+01 5.000000000000000000e+00 2.203999999999999915e+01
6.000000000000000000e+00 5.000000000000000000e+00 8.000000000000000000e+00 1.200000000000000000e+01 5.000000000000000000e+00 2.314000000000000057e+01
6.000000000000000000e+00 5.759999999999999787e+00 8.720000000000000639e+00 1.282000000000000028e+01 5.000000000000000000e+00 2.400000000000000000e+01
6.019999999999999574e+00 6.000000000000000000e+00 9.419999999999999929e+00 1.300000000000000000e+01 5.000000000000000000e+00 2.462000000000000099e+01
7.000000000000000000e+00 6.000000000000000000e+00 1.000000000000000000e+01 1.324000000000000021e+01 5.000000000000000000e+00 2.716000000000000014e+01
7.000000000000000000e+00 6.259999999999999787e+00 1.000000000000000000e+01 1.300000000000000000e+01 5.000000000000000000e+00 2.785999999999999943e+01
7.000000000000000000e+00 6.799999999999999822e+00 1.082000000000000028e+01 1.300000000000000000e+01 5.000000000000000000e+00 2.807999999999999829e+01
7.000000000000000000e+00 6.580000000000000071e+00 1.100000000000000000e+01 1.300000000000000000e+01 5.000000000000000000e+00 2.771999999999999886e+01
7.000000000000000000e+00 7.000000000000000000e+00 1.100000000000000000e+01 1.300000000000000000e+01 5.000000000000000000e+00 2.794000000000000128e+01
7.000000000000000000e+00 6.360000000000000320e+00 1.103999999999999915e+01 1.300000000000000000e+01 4.500000000000000000e+00 2.783999999999999986e+01
7.000000000000000000e+00 6.580000000000000071e+00 1.151999999999999957e+01 1.300000000000000000e+01 4.780000000000000249e+00 2.794000000000000128e+01
7.000000000000000000e+00 6.419999999999999929e+00 1.200000000000000000e+01 1.300000000000000000e+01 4.799999999999999822e+00 2.726000000000000156e+01
7.000000000000000000e+00 6.000000000000000000e+00 1.183999999999999986e+01 1.300000000000000000e+01 5.000000000000000000e+00 2.692000000000000171e+01
6.219999999999999751e+00 6.000000000000000000e+00 1.140000000000000036e+01 1.300000000000000000e+01 4.940000000000000391e+00 2.569999999999999929e+01
6.000000000000000000e+00 6.440000000000000391e+00 1.177999999999999936e+01 1.300000000000000000e+01 5.000000000000000000e+00 2.378000000000000114e+01
6.000000000000000000e+00 6.000000000000000000e+00 1.164000000000000057e+01 1.274000000000000021e+01 5.000000000000000000e+00 2.283999999999999986e+01
6.000000000000000000e+00 6.000000000000000000e+00 1.133999999999999986e+01 1.300000000000000000e+01 5.000000000000000000e+00 2.264000000000000057e+01
6.000000000000000000e+00 6.000000000000000000e+00 1.200000000000000000e+01 1.216000000000000014e+01 5.000000000000000000e+00 2.300000000000000000e+01
6.000000000000000000e+00 6.000000000000000000e+00 1.191999999999999993e+01 1.200000000000000000e+01 5.000000000000000000e+00 2.262000000000000099e+01
6.000000000000000000e+00 6.000000000000000000e+00 1.116000000000000014e+01 1.200000000000000000e+01 5.000000000000000000e+00 2.300000000000000000e+01
6.000000000000000000e+00 6.000000000000000000e+00 1.100000000000000000e+01 1.200000000000000000e+01 5.000000000000000000e+00 2.237999999999999901e+01
6.000000000000000000e+00 6.000000000000000000e+00 1.138000000000000078e+01 1.200000000000000000e+01 5.000000000000000000e+00 2.300000000000000000e+01
6.000000000000000000e+00 6.000000000000000000e+00 1.200000000000000000e+01 1.167999999999999972e+01 4.120000000000000107e+00 2.335999999999999943e+01
6.000000000000000000e+00 5.759999999999999787e+00 1.114000000000000057e+01 1.100000000000000000e+01 4.000000000000000000e+00 2.400000000000000000e+01
6.000000000000000000e+00 5.000000000000000000e+00 1.100000000000000000e+01 1.103999999999999915e+01 4.000000000000000000e+00 2.400000000000000000e+01
6.000000000000000000e+00 5.000000000000000000e+00 1.100000000000000000e+01 1.151999999999999957e+01 4.000000000000000000e+00 2.410000000000000142e+01
6.000000000000000000e+00 5.299999999999999822e+00 1.100000000000000000e+01 1.127999999999999936e+01 4.000000000000000000e+00 2.433999999999999986e+01
6.879999999999999893e+00 6.799999999999999822e+00 1.064000000000000057e+01 1.200000000000000000e+01 4.000000000000000000e+00 2.400000000000000000e+01
7.440000000000000391e+00 8.000000000000000000e+00 1.025999999999999979e+01 1.200000000000000000e+01 4.000000000000000000e+00 2.423999999999999844e+01
8.060000000000000497e+00 8.839999999999999858e+00 1.106000000000000050e+01 1.283999999999999986e+01 4.000000000000000000e+00 2.521999999999999886e+01
9.439999999999999503e+00 9.000000000000000000e+00 1.200000000000000000e+01 1.300000000000000000e+01 4.000000000000000000e+00 2.576000000000000156e+01
1.000000000000000000e+01 9.980000000000000426e+00 1.200000000000000000e+01 1.300000000000000000e+01 4.679999999999999716e+00 2.750000000000000000e+01
1.090000000000000036e+01 1.000000000000000000e+01 1.224000000000000021e+01 1.359999999999999964e+01 5.000000000000000000e+00 2.857999999999999829e+01
1.100000000000000000e+01 1.069999999999999929e+01 1.274000000000000021e+01 1.400000000000000000e+01 5.000000000000000000e+00 2.837999999999999901e+01
1.148000000000000043e+01 1.175999999999999979e+01 1.219999999999999929e+01 1.319999999999999929e+01 5.000000000000000000e+00 2.882000000000000028e+01
1.140000000000000036e+01 1.100000000000000000e+01 1.200000000000000000e+01 1.240000000000000036e+01 5.000000000000000000e+00 2.789999999999999858e+01
1.620000000000000107e+00 2.000000000000000000e+00 2.000000000000000000e+00 2.000000000000000000e+00 0.000000000000000000e+00 3.000000000000000000e+00
1.020000000000000018e+00 2.000000000000000000e+00 2.000000000000000000e+00 2.000000000000000000e+00 0.000000000000000000e+00 3.000000000000000000e+00
1.000000000000000000e+00 2.000000000000000000e+00 2.000000000000000000e+00 2.000000000000000000e+00 0.000000000000000000e+00 3.000000000000000000e+00
1.000000000000000000e+00 2.000000000000000000e+00 2.000000000000000000e+00 2.000000000000000000e+00 0.000000000000000000e+00 3.000000000000000000e+00
1.739999999999999991e+00 2.000000000000000000e+00 2.000000000000000000e+00 2.000000000000000000e+00 0.000000000000000000e+00 3.000000000000000000e+00
2.000000000000000000e+00 2.000000000000000000e+00 2.000000000000000000e+00 2.000000000000000000e+00 0.000000000000000000e+00 3.000000000000000000e+00
2.000000000000000000e+00 2.000000000000000000e+00 2.000000000000000000e+00 2.000000000000000000e+00 0.000000000000000000e+00 3.680000000000000160e+00
2.000000000000000000e+00 2.000000000000000000e+00 2.000000000000000000e+00 2.000000000000000000e+00 0.000000000000000000e+00 4.000000000000000000e+00
2.000000000000000000e+00 2.000000000000000000e+00 2.000000000000000000e+00 2.000000000000000000e+00 0.000000000000000000e+00 3.500000000000000000e+00
2.000000000000000000e+00 2.000000000000000000e+00 2.000000000000000000e+00 2.000000000000000000e+00 0.000000000000000000e+00 3.000000000000000000e+00
2.000000000000000000e+00 2.000000000000000000e+00 2.000000000000000000e+00 2.000000000000000000e+00 0.000000000000000000e+00 3.000000000000000000e+00
2.000000000000000000e+00 2.000000000000000000e+00 2.000000000000000000e+00 2.000000000000000000e+00 0.000000000000000000e+00 3.000000000000000000e+00
2.000000000000000000e+00 2.000000000000000000e+00 2.000000000000000000e+00 2.000000000000000000e+00 0.000000000000000000e+00 3.000000000000000000e+00
2.000000000000000000e+00 2.000000000000000000e+00 2.000000000000000000e+00 2.000000000000000000e+00 0.000000000000000000e+00 2.620000000000000107e+00
2.000000000000000000e+00 2.000000000000000000e+00 2.000000000000000000e+00 2.000000000000000000e+00 0.000000000000000000e+00 2.000000000000000000e+00
1.639999999999999902e+00 2.000000000000000000e+00 2.000000000000000000e+00 2.000000000000000000e+00 0.000000000000000000e+00 2.000000000000000000e+00
1.000000000000000000e+00 2.000000000000000000e+00 2.000000000000000000e+00 2.000000000000000000e+00 0.000000000000000000e+00 1.179999999999999938e+00
1.000000000000000000e+00 2.000000000000000000e+00 2.000000000000000000e+00 2.000000000000000000e+00 0.000000000000000000e+00 1.000000000000000000e+00
1.000000000000000000e+00 2.000000000000000000e+00 2.000000000000000000e+00 2.000000000000000000e+00 0.000000000000000000e+00 1.000000000000000000e+00
1.000000000000000000e+00 2.000000000000000000e+00 2.000000000000000000e+00 2.000000000000000000e+00 0.000000000000000000e+00 1.000000000000000000e+00
1.000000000000000000e+00 2.000000000000000000e+00 2.000000000000000000e+00 2.000000000000000000e+00 0.000000000000000000e+00 1.000000000000000000e+00
1.000000000000000000e+00 2.000000000000000000e+00 1.219999999999999973e+00 2.000000000000000000e+00 0.000000000000000000e+00 1.000000000000000000e+00
1.000000000000000000e+00 2.000000000000000000e+00 1.000000000000000000e+00 2.000000000000000000e+00 0.000000000000000000e+00 1.000000000000000000e+00
1.080000000000000071e+00 2.000000000000000000e+00 1.000000000000000000e+00 2.000000000000000000e+00 0.000000000000000000e+00 1.000000000000000000e+00
1.959999999999999964e+00 2.000000000000000000e+00 1.159999999999999920e+00 2.000000000000000000e+00 0.000000000000000000e+00 1.000000000000000000e+00
2.000000000000000000e+00 2.000000000000000000e+00 2.000000000000000000e+00 2.000000000000000000e+00 0.000000000000000000e+00 1.000000000000000000e+00
2.000000000000000000e+00 2.000000000000000000e+00 2.000000000000000000e+00 2.000000000000000000e+00 0.000000000000000000e+00 1.000000000000000000e+00
2.000000000000000000e+00 2.000000000000000000e+00 2.000000000000000000e+00 2.000000000000000000e+00 0.000000000000000000e+00 1.000000000000000000e+00
2.000000000000000000e+00 2.000000000000000000e+00 2.000000000000000000e+00 2.000000000000000000e+00 0.000000000000000000e+00 1.000000000000000000e+00
2.000000000000000000e+00 2.000000000000000000e+00 2.000000000000000000e+00 2.000000000000000000e+00 0.000000000000000000e+00 1.000000000000000000e+00
2.000000000000000000e+00 2.000000000000000000e+00 2.000000000000000000e+00 2.000000000000000000e+00 0.000000000000000000e+00 1.000000000000000000e+00
2.939999999999999947e+00 2.000000000000000000e+00 2.000000000000000000e+00 2.000000000000000000e+00 0.000000000000000000e+00 1.000000000000000000e+00
3.000000000000000000e+00 2.000000000000000000e+00 2.000000000000000000e+00 2.000000000000000000e+00 0.000000000000000000e+00 1.000000000000000000e+00
3.000000000000000000e+00 2.000000000000000000e+00 2.100000000000000089e+00 2.000000000000000000e+00 0.000000000000000000e+00 1.000000000000000000e+00
3.560000000000000053e+00 2.000000000000000000e+00 3.000000000000000000e+00 2.000000000000000000e+00 0.000000000000000000e+00 1.000000000000000000e+00
4.000000000000000000e+00 2.000000000000000000e+00 3.000000000000000000e+00 2.000000000000000000e+00 0.000000000000000000e+00 1.000000000000000000e+00
4.000000000000000000e+00 2.000000000000000000e+00 3.000000000000000000e+00 2.000000000000000000e+00 0.000000000000000000e+00 1.000000000000000000e+00
4.000000000000000000e+00 2.000000000000000000e+00 3.000000000000000000e+00 2.000000000000000000e+00 0.000000000000000000e+00 1.000000000000000000e+00
4.000000000000000000e+00 2.000000000000000000e+00 3.000000000000000000e+00 1.939999999999999947e+00 0.000000000000000000e+00 1.000000000000000000e+00
4.000000000000000000e+00 2.000000000000000000e+00 3.000000000000000000e+00 1.360000000000000098e+00 0.000000000000000000e+00 1.000000000000000000e+00
1.889999999999999858e+01 2.339999999999999858e+01 1.175799999999999983e+02 1.498000000000000043e+01 8.919999999999999929e+00 1.085999999999999943e+01
2.098000000000000043e+01 2.492000000000000171e+01 1.161800000000000068e+02 1.500000000000000000e+01 9.699999999999999289e+00 1.198000000000000043e+01
2.160000000000000142e+01 2.517999999999999972e+01 1.118599999999999994e+02 1.548000000000000043e+01 1.180000000000000071e+01 1.277999999999999936e+01
2.200000000000000000e+01 2.416000000000000014e+01 1.071599999999999966e+02 1.600000000000000000e+01 1.280000000000000071e+01 1.300000000000000000e+01
2.283999999999999986e+01 2.532000000000000028e+01 1.060999999999999943e+02 1.666000000000000014e+01 1.400000000000000000e+01 1.300000000000000000e+01
2.300000000000000000e+01 2.600000000000000000e+01 1.044399999999999977e+02 1.810000000000000142e+01 1.482000000000000028e+01 1.317999999999999972e+01
2.300000000000000000e+01 2.607999999999999829e+01 1.030199999999999960e+02 1.980000000000000071e+01 1.538000000000000078e+01 1.500000000000000000e+01
2.300000000000000000e+01 2.698000000000000043e+01 1.001200000000000045e+02 2.000000000000000000e+01 1.610000000000000142e+01 1.535999999999999943e+01
2.300000000000000000e+01 2.678000000000000114e+01 9.578000000000000114e+01 2.016000000000000014e+01 1.746000000000000085e+01 1.564000000000000057e+01
2.246000000000000085e+01 2.655999999999999872e+01 9.368000000000000682e+01 2.078000000000000114e+01 1.816000000000000014e+01 1.506000000000000050e+01
2.183999999999999986e+01 2.596000000000000085e+01 9.634000000000000341e+01 2.073999999999999844e+01 1.807999999999999829e+01 1.443999999999999950e+01
2.046000000000000085e+01 2.628000000000000114e+01 9.600000000000000000e+01 2.142000000000000171e+01 1.851999999999999957e+01 1.419999999999999929e+01
2.092000000000000171e+01 2.919999999999999929e+01 9.412000000000000455e+01 2.121999999999999886e+01 1.800000000000000000e+01 1.500000000000000000e+01
2.000000000000000000e+01 3.046000000000000085e+01 9.062000000000000455e+01 2.253999999999999915e+01 1.985999999999999943e+01 1.500000000000000000e+01
2.000000000000000000e+01 3.080000000000000071e+01 8.857999999999999829e+01 2.251999999999999957e+01 2.100000000000000000e+01 1.491999999999999993e+01
2.067999999999999972e+01 3.105999999999999872e+01 8.628000000000000114e+01 2.096000000000000085e+01 2.150000000000000000e+01 1.485999999999999943e+01
2.100000000000000000e+01 3.200000000000000000e+01 8.357999999999999829e+01 2.176000000000000156e+01 2.200000000000000000e+01 1.400000000000000000e+01
2.053999999999999915e+01 3.171999999999999886e+01 8.262000000000000455e+01 2.192000000000000171e+01 2.200000000000000000e+01 1.314000000000000057e+01
2.083999999999999986e+01 3.183999999999999986e+01 8.226000000000000512e+01 2.394000000000000128e+01 2.253999999999999915e+01 1.300000000000000000e+01
2.100000000000000000e+01 3.194000000000000128e+01 7.859999999999999432e+01 2.500000000000000000e+01 2.280000000000000071e+01 1.333999999999999986e+01
2.100000000000000000e+01 3.121999999999999886e+01 7.323999999999999488e+01 2.417999999999999972e+01 2.300000000000000000e+01 1.300000000000000000e+01
2.026000000000000156e+01 2.992000000000000171e+01 7.270000000000000284e+01 2.466000000000000014e+01 2.319999999999999929e+01 1.300000000000000000e+01
2.000000000000000000e+01 2.703999999999999915e+01 7.340000000000000568e+01 2.678000000000000114e+01 2.516000000000000014e+01 1.224000000000000021e+01
2.064000000000000057e+01 2.678000000000000114e+01 7.504000000000000625e+01 3.167999999999999972e+01 2.546000000000000085e+01 1.261999999999999922e+01
2.133999999999999986e+01 2.571999999999999886e+01 7.609999999999999432e+01 3.328000000000000114e+01 2.633999999999999986e+01 1.300000000000000000e+01
2.132000000000000028e+01 2.485999999999999943e+01 7.618000000000000682e+01 3.403999999999999915e+01 2.601999999999999957e+01 1.300000000000000000e+01
2.100000000000000000e+01 2.453999999999999915e+01 7.506000000000000227e+01 3.634000000000000341e+01 2.696000000000000085e+01 1.253999999999999915e+01
2.100000000000000000e+01 2.600000000000000000e+01 7.568000000000000682e+01 3.675999999999999801e+01 2.698000000000000043e+01 1.300000000000000000e+01
2.055999999999999872e+01 2.546000000000000085e+01 7.528000000000000114e+01 3.507999999999999829e+01 2.600000000000000000e+01 1.203999999999999915e+01
1.942000000000000171e+01 2.403999999999999915e+01 7.657999999999999829e+01 3.402000000000000313e+01 2.519999999999999929e+01 1.200000000000000000e+01
1.900000000000000000e+01 2.353999999999999915e+01 7.468000000000000682e+01 3.400000000000000000e+01 2.467999999999999972e+01 1.177999999999999936e+01
1.889999999999999858e+01 2.300000000000000000e+01 7.137999999999999545e+01 3.328000000000000114e+01 2.394000000000000128e+01 1.100000000000000000e+01
1.789999999999999858e+01 2.178000000000000114e+01 6.600000000000000000e+01 3.053999999999999915e+01 2.160000000000000142e+01 1.096000000000000085e+01
1.603999999999999915e+01 1.985999999999999943e+01 6.047999999999999687e+01 2.407999999999999829e+01 1.873999999999999844e+01 9.820000000000000284e+00
1.406000000000000050e+01 1.871999999999999886e+01 5.438000000000000256e+01 2.128000000000000114e+01 1.490000000000000036e+01 9.539999999999999147e+00
1.222000000000000064e+01 1.800000000000000000e+01 4.956000000000000227e+01 1.905999999999999872e+01 1.300000000000000000e+01 8.480000000000000426e+00
1.117999999999999972e+01 1.577999999999999936e+01 4.535999999999999943e+01 1.190000000000000036e+01 9.640000000000000568e+00 7.860000000000000320e+00
1.000000000000000000e+01 1.167999999999999972e+01 3.792000000000000171e+01 8.820000000000000284e+00 7.799999999999999822e+00 7.000000000000000000e+00
9.060000000000000497e+00 1.048000000000000043e+01 3.217999999999999972e+01 7.540000000000000036e+00 6.419999999999999929e+00 6.459999999999999964e+00
7.959999999999999964e+00 9.660000000000000142e+00 2.307999999999999829e+01 6.459999999999999964e+00 5.519999999999999574e+00 6.000000000000000000e+00
3.965999999999999659e+01 4.047999999999999687e+01 1.985999999999999943e+01 5.439999999999999858e+01 3.852000000000000313e+01 3.661999999999999744e+01
4.156000000000000227e+01 4.197999999999999687e+01 2.000000000000000000e+01 5.500000000000000000e+01 3.900000000000000000e+01 3.765999999999999659e+01
4.038000000000000256e+01 4.047999999999999687e+01 1.957999999999999829e+01 5.465999999999999659e+01 3.864000000000000057e+01 3.461999999999999744e+01
4.075999999999999801e+01 4.110000000000000142e+01 1.900000000000000000e+01 5.311999999999999744e+01 3.752000000000000313e+01 3.375999999999999801e+01
5.292000000000000171e+01 4.515999999999999659e+01 1.878000000000000114e+01 4.346000000000000085e+01 3.130000000000000071e+01 3.311999999999999744e+01
6.247999999999999687e+01 4.839999999999999858e+01 1.978000000000000114e+01 3.653999999999999915e+01 2.982000000000000028e+01 3.296000000000000085e+01
6.206000000000000227e+01 4.806000000000000227e+01 2.100000000000000000e+01 3.856000000000000227e+01 2.939999999999999858e+01 3.324000000000000199e+01
6.224000000000000199e+01 5.082000000000000028e+01 2.066000000000000014e+01 3.675999999999999801e+01 2.632000000000000028e+01 3.214000000000000057e+01
6.392000000000000171e+01 4.947999999999999687e+01 2.100000000000000000e+01 3.774000000000000199e+01 2.626000000000000156e+01 3.203999999999999915e+01
6.462000000000000455e+01 4.900000000000000000e+01 2.100000000000000000e+01 3.771999999999999886e+01 2.616000000000000014e+01 3.046000000000000085e+01
6.406000000000000227e+01 4.871999999999999886e+01 2.007999999999999829e+01 3.988000000000000256e+01 2.789999999999999858e+01 2.848000000000000043e+01
6.426000000000000512e+01 4.903999999999999915e+01 2.110000000000000142e+01 6.042000000000000171e+01 3.352000000000000313e+01 2.630000000000000071e+01
6.514000000000000057e+01 5.025999999999999801e+01 2.200000000000000000e+01 7.218000000000000682e+01 3.664000000000000057e+01 2.630000000000000071e+01
6.468000000000000682e+01 4.988000000000000256e+01 2.200000000000000000e+01 7.615999999999999659e+01 3.900000000000000000e+01 2.500000000000000000e+01
5.634000000000000341e+01 4.697999999999999687e+01 2.192000000000000171e+01 7.909999999999999432e+01 4.014000000000000057e+01 2.469999999999999929e+01
4.660000000000000142e+01 4.406000000000000227e+01 2.033999999999999986e+01 7.900000000000000000e+01 4.000000000000000000e+01 2.335999999999999943e+01
4.497999999999999687e+01 4.324000000000000199e+01 1.917999999999999972e+01 7.829999999999999716e+01 3.934000000000000341e+01 2.150000000000000000e+01
4.475999999999999801e+01 4.032000000000000028e+01 1.900000000000000000e+01 7.714000000000000057e+01 3.900000000000000000e+01 2.137999999999999901e+01
4.502000000000000313e+01 4.134000000000000341e+01 1.900000000000000000e+01 7.700000000000000000e+01 3.961999999999999744e+01 2.094000000000000128e+01
4.510000000000000142e+01 4.057999999999999829e+01 1.944000000000000128e+01 7.807999999999999829e+01 4.082000000000000028e+01 2.119999999999999929e+01
4.528000000000000114e+01 3.975999999999999801e+01 2.000000000000000000e+01 7.798000000000000398e+01 4.067999999999999972e+01 2.200000000000000000e+01
4.467999999999999972e+01 3.925999999999999801e+01 1.948000000000000043e+01 6.239999999999999858e+01 3.742000000000000171e+01 2.142000000000000171e+01
4.182000000000000028e+01 3.725999999999999801e+01 1.866000000000000014e+01 4.965999999999999659e+01 3.414000000000000057e+01 2.003999999999999915e+01
4.093999999999999773e+01 3.588000000000000256e+01 1.800000000000000000e+01 4.284000000000000341e+01 3.142000000000000171e+01 1.966000000000000014e+01
3.767999999999999972e+01 3.421999999999999886e+01 1.773999999999999844e+01 3.746000000000000085e+01 2.857999999999999829e+01 1.896000000000000085e+01
3.700000000000000000e+01 3.200000000000000000e+01 1.700000000000000000e+01 3.500000000000000000e+01 2.700000000000000000e+01 1.816000000000000014e+01
3.606000000000000227e+01 2.971999999999999886e+01 1.700000000000000000e+01 3.270000000000000284e+01 2.603999999999999915e+01 1.860000000000000142e+01
3.389999999999999858e+01 2.705999999999999872e+01 1.633999999999999986e+01 3.023999999999999844e+01 2.466000000000000014e+01 1.800000000000000000e+01
2.957999999999999829e+01 2.442000000000000171e+01 1.543999999999999950e+01 2.796000000000000085e+01 2.294000000000000128e+01 1.707999999999999829e+01
2.594000000000000128e+01 2.346000000000000085e+01 1.367999999999999972e+01 2.337999999999999901e+01 1.978000000000000114e+01 1.596000000000000085e+01
2.117999999999999972e+01 2.094000000000000128e+01 1.177999999999999936e+01 1.846000000000000085e+01 1.626000000000000156e+01 1.466000000000000014e+01
1.685999999999999943e+01 1.751999999999999957e+01 9.599999999999999645e+00 1.361999999999999922e+01 1.191999999999999993e+01 1.343999999999999950e+01
1.483999999999999986e+01 1.311999999999999922e+01 8.599999999999999645e+00 1.190000000000000036e+01 1.058000000000000007e+01 1.206000000000000050e+01
1.300000000000000000e+01 1.200000000000000000e+01 7.900000000000000355e+00 1.072000000000000064e+01 1.000000000000000000e+01 1.200000000000000000e+01
1.240000000000000036e+01 1.101999999999999957e+01 7.000000000000000000e+00 9.960000000000000853e+00 1.000000000000000000e+01 1.200000000000000000e+01
1.059999999999999964e+01 1.040000000000000036e+01 6.700000000000000178e+00 8.779999999999999361e+00 9.660000000000000142e+00 1.133999999999999986e+01
8.279999999999999361e+00 8.660000000000000142e+00 4.900000000000000355e+00 7.919999999999999929e+00 9.000000000000000000e+00 9.220000000000000639e+00
5.179999999999999716e+00 5.820000000000000284e+00 3.959999999999999964e+00 6.419999999999999929e+00 8.000000000000000000e+00 7.540000000000000036e+00
4.379999999999999893e+00 4.459999999999999964e+00 3.000000000000000000e+00 4.660000000000000142e+00 7.599999999999999645e+00 6.559999999999999609e+00
1.820000000000000062e+00 3.620000000000000107e+00 2.439999999999999947e+00 3.279999999999999805e+00 7.000000000000000000e+00 6.000000000000000000e+00
