2.737999999999999901e+01 4.600000000000000000e+01 1.400000000000000000e+01 1.700000000000000000e+01 1.172000000000000064e+01 8.000000000000000000e+00
2.737999999999999901e+01 4.506000000000000227e+01 1.400000000000000000e+01 1.764000000000000057e+01 1.133999999999999986e+01 8.220000000000000639e+00
2.714000000000000057e+01 4.403999999999999915e+01 1.319999999999999929e+01 1.800000000000000000e+01 1.100000000000000000e+01 8.359999999999999432e+00
2.580000000000000071e+01 4.397999999999999687e+01 1.300000000000000000e+01 1.707999999999999829e+01 1.077999999999999936e+01 9.000000000000000000e+00
2.576000000000000156e+01 4.482000000000000028e+01 1.300000000000000000e+01 1.616000000000000014e+01 1.100000000000000000e+01 9.000000000000000000e+00
2.673999999999999844e+01 4.378000000000000114e+01 1.256000000000000050e+01 1.673999999999999844e+01 1.100000000000000000e+01 9.000000000000000000e+00
2.700000000000000000e+01 4.429999999999999716e+01 1.200000000000000000e+01 1.735999999999999943e+01 1.132000000000000028e+01 9.000000000000000000e+00
2.700000000000000000e+01 4.470000000000000284e+01 1.293999999999999950e+01 1.926000000000000156e+01 1.200000000000000000e+01 9.000000000000000000e+00
2.792000000000000171e+01 4.635999999999999943e+01 1.400000000000000000e+01 1.910000000000000142e+01 1.240000000000000036e+01 9.000000000000000000e+00
2.832000000000000028e+01 5.189999999999999858e+01 1.325999999999999979e+01 1.969999999999999929e+01 1.377999999999999936e+01 9.000000000000000000e+00
3.082000000000000028e+01 5.371999999999999886e+01 1.358000000000000007e+01 1.967999999999999972e+01 1.366000000000000014e+01 9.000000000000000000e+00
3.094000000000000128e+01 5.492000000000000171e+01 1.400000000000000000e+01 1.962000000000000099e+01 1.385999999999999943e+01 9.000000000000000000e+00
3.078000000000000114e+01 5.715999999999999659e+01 1.425999999999999979e+01 1.948000000000000043e+01 1.400000000000000000e+01 9.000000000000000000e+00
3.100000000000000000e+01 5.734000000000000341e+01 1.435999999999999943e+01 2.000000000000000000e+01 1.364000000000000057e+01 9.000000000000000000e+00
3.182000000000000028e+01 5.871999999999999886e+01 1.500000000000000000e+01 2.000000000000000000e+01 1.300000000000000000e+01 9.000000000000000000e+00
3.100000000000000000e+01 6.032000000000000028e+01 1.500000000000000000e+01 1.926000000000000156e+01 1.300000000000000000e+01 8.279999999999999361e+00
3.114000000000000057e+01 6.017999999999999972e+01 1.500000000000000000e+01 1.860000000000000142e+01 1.300000000000000000e+01 8.000000000000000000e+00
3.178000000000000114e+01 5.824000000000000199e+01 1.491999999999999993e+01 1.664000000000000057e+01 1.300000000000000000e+01 8.000000000000000000e+00
3.126000000000000156e+01 5.497999999999999687e+01 1.409999999999999964e+01 1.664000000000000057e+01 1.261999999999999922e+01 8.000000000000000000e+00
3.082000000000000028e+01 4.943999999999999773e+01 1.482000000000000028e+01 1.692000000000000171e+01 1.200000000000000000e+01 8.000000000000000000e+00
2.817999999999999972e+01 4.817999999999999972e+01 1.472000000000000064e+01 1.637999999999999901e+01 1.200000000000000000e+01 7.540000000000000036e+00
2.803999999999999915e+01 4.711999999999999744e+01 1.458000000000000007e+01 1.664000000000000057e+01 1.200000000000000000e+01 7.519999999999999574e+00
2.882000000000000028e+01 4.417999999999999972e+01 1.461999999999999922e+01 1.800000000000000000e+01 1.200000000000000000e+01 7.000000000000000000e+00
2.885999999999999943e+01 4.510000000000000142e+01 1.500000000000000000e+01 1.850000000000000000e+01 1.217999999999999972e+01 7.839999999999999858e+00
2.833999999999999986e+01 4.488000000000000256e+01 1.500000000000000000e+01 1.946000000000000085e+01 1.200000000000000000e+01 8.000000000000000000e+00
2.876000000000000156e+01 4.256000000000000227e+01 1.524000000000000021e+01 2.000000000000000000e+01 1.264000000000000057e+01 8.000000000000000000e+00
2.862000000000000099e+01 4.189999999999999858e+01 1.532000000000000028e+01 2.007999999999999829e+01 1.300000000000000000e+01 8.000000000000000000e+00
2.900000000000000000e+01 4.432000000000000028e+01 1.524000000000000021e+01 2.023999999999999844e+01 1.300000000000000000e+01 8.000000000000000000e+00
2.814000000000000057e+01 4.507999999999999829e+01 1.511999999999999922e+01 2.000000000000000000e+01 1.300000000000000000e+01 8.000000000000000000e+00
2.812000000000000099e+01 4.570000000000000284e+01 1.538000000000000078e+01 2.051999999999999957e+01 1.300000000000000000e+01 8.000000000000000000e+00
2.787999999999999901e+01 4.575999999999999801e+01 1.500000000000000000e+01 2.032000000000000028e+01 1.300000000000000000e+01 8.000000000000000000e+00
2.717999999999999972e+01 4.788000000000000256e+01 1.500000000000000000e+01 2.062000000000000099e+01 1.300000000000000000e+01 8.000000000000000000e+00
2.685999999999999943e+01 4.874000000000000199e+01 1.475999999999999979e+01 1.932000000000000028e+01 1.261999999999999922e+01 8.000000000000000000e+00
2.644000000000000128e+01 4.689999999999999858e+01 1.400000000000000000e+01 1.892000000000000171e+01 1.232000000000000028e+01 7.900000000000000355e+00
2.769999999999999929e+01 4.560000000000000142e+01 1.364000000000000057e+01 1.862000000000000099e+01 1.200000000000000000e+01 7.679999999999999716e+00
2.762000000000000099e+01 4.532000000000000028e+01 1.400000000000000000e+01 1.833999999999999986e+01 1.200000000000000000e+01 7.280000000000000249e+00
2.894000000000000128e+01 4.653999999999999915e+01 1.400000000000000000e+01 1.800000000000000000e+01 1.200000000000000000e+01 7.099999999999999645e+00
2.816000000000000014e+01 4.556000000000000227e+01 1.400000000000000000e+01 1.869999999999999929e+01 1.141999999999999993e+01 7.000000000000000000e+00
2.871999999999999886e+01 4.767999999999999972e+01 1.393999999999999950e+01 1.900000000000000000e+01 1.196000000000000085e+01 7.599999999999999645e+00
2.864000000000000057e+01 4.814000000000000057e+01 1.400000000000000000e+01 1.862000000000000099e+01 1.335999999999999943e+01 8.000000000000000000e+00
2.983999999999999986e+01 7.773999999999999488e+01 2.473999999999999844e+01 3.574000000000000199e+01 1.600000000000000000e+01 2.585999999999999943e+01
3.467999999999999972e+01 1.004599999999999937e+02 2.583999999999999986e+01 3.743999999999999773e+01 1.623999999999999844e+01 2.978000000000000114e+01
4.110000000000000142e+01 1.354399999999999977e+02 2.757999999999999829e+01 4.061999999999999744e+01 1.853999999999999915e+01 3.750000000000000000e+01
4.602000000000000313e+01 1.569000000000000057e+02 2.839999999999999858e+01 4.488000000000000256e+01 2.510000000000000142e+01 4.374000000000000199e+01
4.900000000000000000e+01 1.749399999999999977e+02 2.896000000000000085e+01 5.053999999999999915e+01 3.157999999999999829e+01 5.029999999999999716e+01
5.182000000000000028e+01 1.942599999999999909e+02 3.270000000000000284e+01 5.839999999999999858e+01 3.470000000000000284e+01 5.647999999999999687e+01
5.385999999999999943e+01 1.989000000000000057e+02 3.561999999999999744e+01 6.156000000000000227e+01 3.757999999999999829e+01 5.974000000000000199e+01
5.652000000000000313e+01 2.149600000000000080e+02 3.784000000000000341e+01 6.357999999999999829e+01 4.034000000000000341e+01 6.378000000000000114e+01
5.700000000000000000e+01 2.211200000000000045e+02 3.803999999999999915e+01 6.492000000000000171e+01 4.184000000000000341e+01 6.528000000000000114e+01
5.796000000000000085e+01 2.326599999999999966e+02 3.928000000000000114e+01 6.681999999999999318e+01 4.250000000000000000e+01 6.823999999999999488e+01
5.897999999999999687e+01 2.369399999999999977e+02 4.043999999999999773e+01 6.900000000000000000e+01 4.300000000000000000e+01 6.909999999999999432e+01
5.652000000000000313e+01 2.309199999999999875e+02 3.996000000000000085e+01 6.850000000000000000e+01 4.388000000000000256e+01 6.918000000000000682e+01
5.228000000000000114e+01 2.179399999999999977e+02 3.996000000000000085e+01 6.821999999999999886e+01 4.400000000000000000e+01 6.687999999999999545e+01
4.879999999999999716e+01 2.070000000000000000e+02 4.024000000000000199e+01 6.815999999999999659e+01 4.189999999999999858e+01 6.356000000000000227e+01
4.679999999999999716e+01 1.950399999999999920e+02 3.865999999999999659e+01 6.564000000000000057e+01 3.874000000000000199e+01 5.985999999999999943e+01
4.335999999999999943e+01 1.791800000000000068e+02 3.621999999999999886e+01 6.024000000000000199e+01 3.642000000000000171e+01 5.597999999999999687e+01
4.038000000000000256e+01 1.792199999999999989e+02 3.428000000000000114e+01 5.729999999999999716e+01 3.379999999999999716e+01 5.389999999999999858e+01
3.906000000000000227e+01 1.636200000000000045e+02 3.300000000000000000e+01 5.520000000000000284e+01 3.100000000000000000e+01 5.029999999999999716e+01
3.982000000000000028e+01 1.581999999999999886e+02 3.346000000000000085e+01 5.407999999999999829e+01 3.050000000000000000e+01 5.021999999999999886e+01
4.185999999999999943e+01 1.457199999999999989e+02 3.317999999999999972e+01 5.225999999999999801e+01 3.071999999999999886e+01 4.757999999999999829e+01
4.100000000000000000e+01 1.414399999999999977e+02 3.400000000000000000e+01 5.043999999999999773e+01 3.169999999999999929e+01 4.828000000000000114e+01
4.142000000000000171e+01 1.386399999999999864e+02 3.400000000000000000e+01 4.853999999999999915e+01 3.151999999999999957e+01 4.760000000000000142e+01
4.196000000000000085e+01 1.334799999999999898e+02 3.450000000000000000e+01 4.793999999999999773e+01 3.126000000000000156e+01 4.746000000000000085e+01
4.156000000000000227e+01 1.439399999999999977e+02 3.382000000000000028e+01 4.467999999999999972e+01 3.073999999999999844e+01 4.938000000000000256e+01
4.074000000000000199e+01 1.441999999999999886e+02 3.465999999999999659e+01 4.260000000000000142e+01 2.912000000000000099e+01 4.910000000000000142e+01
4.128000000000000114e+01 1.427599999999999909e+02 3.500000000000000000e+01 4.214000000000000057e+01 2.948000000000000043e+01 4.878000000000000114e+01
4.100000000000000000e+01 1.362199999999999989e+02 3.434000000000000341e+01 4.235999999999999943e+01 3.050000000000000000e+01 5.270000000000000284e+01
3.874000000000000199e+01 1.338799999999999955e+02 3.335999999999999943e+01 4.100000000000000000e+01 3.010000000000000142e+01 5.234000000000000341e+01
3.729999999999999716e+01 1.337400000000000091e+02 3.300000000000000000e+01 4.215999999999999659e+01 3.028000000000000114e+01 5.115999999999999659e+01
3.506000000000000227e+01 1.326800000000000068e+02 3.275999999999999801e+01 4.265999999999999659e+01 2.939999999999999858e+01 5.025999999999999801e+01
3.485999999999999943e+01 1.304199999999999875e+02 3.171999999999999886e+01 4.396000000000000085e+01 2.907999999999999829e+01 4.947999999999999687e+01
3.347999999999999687e+01 1.284799999999999898e+02 3.194000000000000128e+01 4.556000000000000227e+01 2.937999999999999901e+01 4.800000000000000000e+01
3.229999999999999716e+01 1.264000000000000057e+02 3.062000000000000099e+01 4.535999999999999943e+01 2.942000000000000171e+01 4.784000000000000341e+01
3.114000000000000057e+01 1.097600000000000051e+02 2.978000000000000114e+01 4.485999999999999943e+01 2.889999999999999858e+01 4.614000000000000057e+01
3.096000000000000085e+01 1.071400000000000006e+02 2.942000000000000171e+01 4.578000000000000114e+01 2.900000000000000000e+01 4.497999999999999687e+01
2.900000000000000000e+01 1.058799999999999955e+02 2.764000000000000057e+01 4.347999999999999687e+01 2.853999999999999915e+01 4.274000000000000199e+01
2.951999999999999957e+01 1.054200000000000017e+02 2.748000000000000043e+01 4.256000000000000227e+01 2.771999999999999886e+01 3.835999999999999943e+01
3.017999999999999972e+01 1.064399999999999977e+02 2.816000000000000014e+01 4.396000000000000085e+01 2.771999999999999886e+01 3.943999999999999773e+01
3.044000000000000128e+01 1.068199999999999932e+02 2.803999999999999915e+01 4.307999999999999829e+01 2.800000000000000000e+01 3.961999999999999744e+01
3.035999999999999943e+01 1.069200000000000017e+02 2.751999999999999957e+01 4.165999999999999659e+01 2.750000000000000000e+01 3.885999999999999943e+01
3.867999999999999972e+01 7.584000000000000341e+01 2.750000000000000000e+01 3.921999999999999886e+01 3.166000000000000014e+01 3.164000000000000057e+01
3.767999999999999972e+01 6.712000000000000455e+01 2.766000000000000014e+01 3.610000000000000142e+01 2.957999999999999829e+01 3.017999999999999972e+01
3.782000000000000028e+01 6.684000000000000341e+01 2.664000000000000057e+01 3.200000000000000000e+01 2.678000000000000114e+01 2.898000000000000043e+01
3.624000000000000199e+01 6.562000000000000455e+01 2.628000000000000114e+01 3.166000000000000014e+01 2.630000000000000071e+01 2.700000000000000000e+01
3.567999999999999972e+01 6.600000000000000000e+01 2.671999999999999886e+01 3.048000000000000043e+01 2.526000000000000156e+01 2.616000000000000014e+01
3.460000000000000142e+01 6.568000000000000682e+01 2.701999999999999957e+01 3.037999999999999901e+01 2.517999999999999972e+01 2.600000000000000000e+01
3.392000000000000171e+01 6.815999999999999659e+01 2.642000000000000171e+01 3.225999999999999801e+01 2.519999999999999929e+01 2.600000000000000000e+01
3.300000000000000000e+01 6.931999999999999318e+01 2.657999999999999829e+01 3.400000000000000000e+01 2.498000000000000043e+01 2.628000000000000114e+01
3.215999999999999659e+01 7.306000000000000227e+01 2.700000000000000000e+01 3.311999999999999744e+01 2.400000000000000000e+01 2.692000000000000171e+01
3.135999999999999943e+01 7.331999999999999318e+01 2.700000000000000000e+01 3.256000000000000227e+01 2.262000000000000099e+01 2.521999999999999886e+01
2.919999999999999929e+01 7.385999999999999943e+01 2.700000000000000000e+01 3.228000000000000114e+01 2.112000000000000099e+01 2.460000000000000142e+01
2.819999999999999929e+01 7.448000000000000398e+01 2.698000000000000043e+01 3.424000000000000199e+01 2.187999999999999901e+01 2.601999999999999957e+01
2.766000000000000014e+01 7.328000000000000114e+01 2.717999999999999972e+01 3.434000000000000341e+01 2.183999999999999986e+01 2.687999999999999901e+01
2.669999999999999929e+01 7.079999999999999716e+01 2.696000000000000085e+01 3.207999999999999829e+01 2.003999999999999915e+01 2.600000000000000000e+01
2.594000000000000128e+01 6.818000000000000682e+01 2.616000000000000014e+01 3.192000000000000171e+01 1.921999999999999886e+01 2.539999999999999858e+01
2.548000000000000043e+01 6.878000000000000114e+01 2.562000000000000099e+01 3.144000000000000128e+01 1.839999999999999858e+01 2.407999999999999829e+01
2.473999999999999844e+01 6.421999999999999886e+01 2.437999999999999901e+01 2.855999999999999872e+01 1.737999999999999901e+01 2.339999999999999858e+01
2.396000000000000085e+01 5.924000000000000199e+01 2.289999999999999858e+01 2.550000000000000000e+01 1.591999999999999993e+01 2.250000000000000000e+01
2.180000000000000071e+01 5.196000000000000085e+01 2.167999999999999972e+01 2.450000000000000000e+01 1.541999999999999993e+01 2.010000000000000142e+01
2.080000000000000071e+01 4.785999999999999943e+01 2.023999999999999844e+01 2.400000000000000000e+01 1.453999999999999915e+01 1.921999999999999886e+01
1.867999999999999972e+01 4.206000000000000227e+01 1.873999999999999844e+01 2.267999999999999972e+01 1.375999999999999979e+01 1.776000000000000156e+01
1.833999999999999986e+01 3.765999999999999659e+01 1.666000000000000014e+01 1.864000000000000057e+01 1.106000000000000050e+01 1.366000000000000014e+01
1.628000000000000114e+01 3.346000000000000085e+01 1.443999999999999950e+01 1.648000000000000043e+01 9.300000000000000711e+00 1.050000000000000000e+01
1.556000000000000050e+01 3.053999999999999915e+01 1.256000000000000050e+01 1.353999999999999915e+01 8.820000000000000284e+00 8.960000000000000853e+00
1.400000000000000000e+01 2.676000000000000156e+01 1.075999999999999979e+01 1.167999999999999972e+01 8.000000000000000000e+00 7.219999999999999751e+00
1.258000000000000007e+01 1.474000000000000021e+01 9.000000000000000000e+00 9.179999999999999716e+00 7.700000000000000178e+00 7.000000000000000000e+00
1.200000000000000000e+01 1.300000000000000000e+01 8.119999999999999218e+00 8.320000000000000284e+00 6.660000000000000142e+00 5.980000000000000426e+00
1.127999999999999936e+01 1.214000000000000057e+01 8.000000000000000000e+00 7.440000000000000391e+00 6.000000000000000000e+00 4.000000000000000000e+00
1.085999999999999943e+01 1.090000000000000036e+01 7.200000000000000178e+00 6.379999999999999893e+00 5.019999999999999574e+00 3.740000000000000213e+00
1.069999999999999929e+01 1.000000000000000000e+01 6.980000000000000426e+00 5.719999999999999751e+00 4.299999999999999822e+00 3.000000000000000000e+00
1.058000000000000007e+01 8.580000000000000071e+00 6.019999999999999574e+00 4.580000000000000071e+00 3.740000000000000213e+00 2.740000000000000213e+00
9.039999999999999147e+00 7.019999999999999574e+00 5.540000000000000036e+00 4.000000000000000000e+00 3.759999999999999787e+00 2.000000000000000000e+00
9.000000000000000000e+00 6.860000000000000320e+00 5.000000000000000000e+00 4.000000000000000000e+00 2.080000000000000071e+00 2.000000000000000000e+00
8.060000000000000497e+00 4.160000000000000142e+00 5.000000000000000000e+00 4.000000000000000000e+00 2.259999999999999787e+00 1.000000000000000000e+00
7.799999999999999822e+00 4.000000000000000000e+00 5.000000000000000000e+00 3.439999999999999947e+00 2.060000000000000053e+00 1.000000000000000000e+00
7.000000000000000000e+00 3.060000000000000053e+00 5.000000000000000000e+00 3.000000000000000000e+00 2.479999999999999982e+00 1.000000000000000000e+00
7.820000000000000284e+00 3.000000000000000000e+00 5.000000000000000000e+00 3.000000000000000000e+00 3.000000000000000000e+00 1.000000000000000000e+00
8.000000000000000000e+00 3.000000000000000000e+00 5.000000000000000000e+00 3.000000000000000000e+00 3.000000000000000000e+00 1.000000000000000000e+00
8.220000000000000639e+00 3.000000000000000000e+00 5.000000000000000000e+00 3.000000000000000000e+00 3.000000000000000000e+00 1.000000000000000000e+00
8.199999999999999289e+00 3.000000000000000000e+00 5.000000000000000000e+00 3.000000000000000000e+00 3.000000000000000000e+00 1.000000000000000000e+00
2.576000000000000156e+01 9.000000000000000000e+00 6.478000000000000114e+01 1.024000000000000021e+01 7.000000000000000000e+00 1.398000000000000043e+01
2.635999999999999943e+01 9.599999999999999645e+00 7.340000000000000568e+01 1.027999999999999936e+01 7.759999999999999787e+00 1.461999999999999922e+01
2.726000000000000156e+01 1.000000000000000000e+01 7.812000000000000455e+01 1.109999999999999964e+01 8.300000000000000711e+00 1.500000000000000000e+01
2.783999999999999986e+01 1.000000000000000000e+01 8.406000000000000227e+01 1.108000000000000007e+01 9.000000000000000000e+00 1.519999999999999929e+01
2.783999999999999986e+01 1.000000000000000000e+01 8.834000000000000341e+01 1.200000000000000000e+01 9.000000000000000000e+00 1.503999999999999915e+01
2.800000000000000000e+01 1.000000000000000000e+01 9.150000000000000000e+01 1.203999999999999915e+01 9.419999999999999929e+00 1.535999999999999943e+01
2.776000000000000156e+01 1.000000000000000000e+01 9.118000000000000682e+01 1.300000000000000000e+01 1.000000000000000000e+01 1.500000000000000000e+01
2.819999999999999929e+01 1.000000000000000000e+01 9.137999999999999545e+01 1.300000000000000000e+01 1.000000000000000000e+01 1.500000000000000000e+01
2.882000000000000028e+01 1.000000000000000000e+01 9.287999999999999545e+01 1.441999999999999993e+01 1.019999999999999929e+01 1.509999999999999964e+01
3.064000000000000057e+01 1.090000000000000036e+01 9.440000000000000568e+01 1.511999999999999922e+01 1.100000000000000000e+01 1.600000000000000000e+01
3.051999999999999957e+01 1.100000000000000000e+01 9.504000000000000625e+01 1.598000000000000043e+01 1.100000000000000000e+01 1.683999999999999986e+01
3.039999999999999858e+01 1.096000000000000085e+01 9.037999999999999545e+01 1.600000000000000000e+01 1.100000000000000000e+01 1.687999999999999901e+01
2.953999999999999915e+01 1.000000000000000000e+01 8.948000000000000398e+01 1.556000000000000050e+01 1.100000000000000000e+01 1.687999999999999901e+01
3.048000000000000043e+01 1.000000000000000000e+01 8.601999999999999602e+01 1.530000000000000071e+01 1.100000000000000000e+01 1.700000000000000000e+01
3.067999999999999972e+01 1.000000000000000000e+01 8.365999999999999659e+01 1.501999999999999957e+01 1.100000000000000000e+01 1.700000000000000000e+01
3.100000000000000000e+01 1.000000000000000000e+01 8.156000000000000227e+01 1.503999999999999915e+01 1.100000000000000000e+01 1.796000000000000085e+01
3.023999999999999844e+01 9.419999999999999929e+00 8.145999999999999375e+01 1.472000000000000064e+01 1.100000000000000000e+01 1.800000000000000000e+01
2.937999999999999901e+01 9.000000000000000000e+00 7.957999999999999829e+01 1.501999999999999957e+01 1.100000000000000000e+01 1.830000000000000071e+01
2.883999999999999986e+01 9.119999999999999218e+00 7.990000000000000568e+01 1.483999999999999986e+01 1.017999999999999972e+01 1.973999999999999844e+01
2.685999999999999943e+01 8.839999999999999858e+00 7.787999999999999545e+01 1.400000000000000000e+01 1.000000000000000000e+01 1.900000000000000000e+01
2.573999999999999844e+01 8.000000000000000000e+00 7.521999999999999886e+01 1.385999999999999943e+01 1.000000000000000000e+01 1.832000000000000028e+01
2.557999999999999829e+01 8.000000000000000000e+00 7.273999999999999488e+01 1.398000000000000043e+01 1.069999999999999929e+01 1.800000000000000000e+01
2.621999999999999886e+01 8.119999999999999218e+00 7.071999999999999886e+01 1.427999999999999936e+01 1.100000000000000000e+01 1.800000000000000000e+01
2.451999999999999957e+01 8.699999999999999289e+00 7.284000000000000341e+01 1.593999999999999950e+01 1.111999999999999922e+01 1.830000000000000071e+01
2.264000000000000057e+01 9.080000000000000071e+00 7.765999999999999659e+01 1.600000000000000000e+01 1.203999999999999915e+01 1.946000000000000085e+01
2.173999999999999844e+01 9.000000000000000000e+00 7.907999999999999829e+01 1.600000000000000000e+01 1.232000000000000028e+01 1.978000000000000114e+01
2.187999999999999901e+01 9.279999999999999361e+00 7.884000000000000341e+01 1.626000000000000156e+01 1.300000000000000000e+01 2.082000000000000028e+01
2.271999999999999886e+01 1.000000000000000000e+01 7.971999999999999886e+01 1.664000000000000057e+01 1.300000000000000000e+01 2.182000000000000028e+01
2.200000000000000000e+01 1.000000000000000000e+01 7.857999999999999829e+01 1.700000000000000000e+01 1.324000000000000021e+01 2.200000000000000000e+01
2.200000000000000000e+01 1.000000000000000000e+01 7.762000000000000455e+01 1.700000000000000000e+01 1.359999999999999964e+01 2.400000000000000000e+01
2.200000000000000000e+01 1.000000000000000000e+01 7.804000000000000625e+01 1.783999999999999986e+01 1.400000000000000000e+01 2.564000000000000057e+01
2.119999999999999929e+01 1.000000000000000000e+01 7.798000000000000398e+01 1.751999999999999957e+01 1.396000000000000085e+01 2.651999999999999957e+01
1.998000000000000043e+01 1.000000000000000000e+01 7.657999999999999829e+01 1.694000000000000128e+01 1.374000000000000021e+01 2.662000000000000099e+01
1.982000000000000028e+01 9.859999999999999432e+00 7.223999999999999488e+01 1.600000000000000000e+01 1.359999999999999964e+01 2.700000000000000000e+01
2.066000000000000014e+01 9.080000000000000071e+00 6.698000000000000398e+01 1.558000000000000007e+01 1.300000000000000000e+01 2.635999999999999943e+01
2.089999999999999858e+01 9.000000000000000000e+00 6.521999999999999886e+01 1.500000000000000000e+01 1.353999999999999915e+01 2.642000000000000171e+01
2.048000000000000043e+01 9.000000000000000000e+00 6.568000000000000682e+01 1.509999999999999964e+01 1.377999999999999936e+01 2.587999999999999901e+01
2.000000000000000000e+01 9.119999999999999218e+00 6.571999999999999886e+01 1.540000000000000036e+01 1.375999999999999979e+01 2.501999999999999957e+01
2.003999999999999915e+01 9.019999999999999574e+00 6.554000000000000625e+01 1.514000000000000057e+01 1.308000000000000007e+01 2.435999999999999943e+01
2.262000000000000099e+01 1.000000000000000000e+01 6.801999999999999602e+01 1.564000000000000057e+01 1.330000000000000071e+01 2.383999999999999986e+01
8.359999999999999432e+00 2.740000000000000213e+00 1.844000000000000128e+01 3.000000000000000000e+00 0.000000000000000000e+00 1.000000000000000000e+00
8.240000000000000213e+00 3.000000000000000000e+00 1.853999999999999915e+01 3.879999999999999893e+00 0.000000000000000000e+00 1.000000000000000000e+00
8.060000000000000497e+00 3.000000000000000000e+00 1.982000000000000028e+01 4.000000000000000000e+00 0.000000000000000000e+00 1.000000000000000000e+00
8.679999999999999716e+00 3.000000000000000000e+00 1.900000000000000000e+01 3.799999999999999822e+00 0.000000000000000000e+00 1.000000000000000000e+00
8.000000000000000000e+00 2.220000000000000195e+00 1.900000000000000000e+01 3.259999999999999787e+00 0.000000000000000000e+00 1.000000000000000000e+00
8.460000000000000853e+00 2.399999999999999911e+00 1.900000000000000000e+01 4.000000000000000000e+00 0.000000000000000000e+00 1.000000000000000000e+00
8.000000000000000000e+00 2.000000000000000000e+00 1.944000000000000128e+01 4.000000000000000000e+00 0.000000000000000000e+00 1.000000000000000000e+00
8.960000000000000853e+00 2.500000000000000000e+00 1.901999999999999957e+01 4.000000000000000000e+00 0.000000000000000000e+00 1.000000000000000000e+00
8.939999999999999503e+00 2.040000000000000036e+00 1.800000000000000000e+01 4.000000000000000000e+00 0.000000000000000000e+00 1.000000000000000000e+00
9.000000000000000000e+00 3.000000000000000000e+00 1.746000000000000085e+01 4.000000000000000000e+00 0.000000000000000000e+00 1.000000000000000000e+00
9.000000000000000000e+00 2.520000000000000018e+00 1.705999999999999872e+01 4.000000000000000000e+00 0.000000000000000000e+00 1.000000000000000000e+00
9.080000000000000071e+00 2.000000000000000000e+00 1.744000000000000128e+01 4.000000000000000000e+00 0.000000000000000000e+00 1.000000000000000000e+00
9.000000000000000000e+00 2.000000000000000000e+00 1.642000000000000171e+01 4.000000000000000000e+00 0.000000000000000000e+00 1.000000000000000000e+00
9.000000000000000000e+00 2.020000000000000018e+00 1.683999999999999986e+01 4.000000000000000000e+00 0.000000000000000000e+00 1.000000000000000000e+00
9.000000000000000000e+00 2.779999999999999805e+00 1.650000000000000000e+01 4.000000000000000000e+00 0.000000000000000000e+00 1.000000000000000000e+00
9.000000000000000000e+00 2.979999999999999982e+00 1.600000000000000000e+01 4.000000000000000000e+00 0.000000000000000000e+00 1.000000000000000000e+00
9.000000000000000000e+00 3.000000000000000000e+00 1.621999999999999886e+01 4.000000000000000000e+00 0.000000000000000000e+00 1.000000000000000000e+00
9.000000000000000000e+00 3.000000000000000000e+00 1.700000000000000000e+01 4.000000000000000000e+00 0.000000000000000000e+00 1.000000000000000000e+00
9.000000000000000000e+00 3.000000000000000000e+00 1.751999999999999957e+01 4.000000000000000000e+00 0.000000000000000000e+00 1.000000000000000000e+00
9.000000000000000000e+00 2.379999999999999893e+00 1.800000000000000000e+01 4.000000000000000000e+00 0.000000000000000000e+00 1.000000000000000000e+00
9.000000000000000000e+00 3.000000000000000000e+00 1.800000000000000000e+01 4.000000000000000000e+00 0.000000000000000000e+00 1.000000000000000000e+00
8.339999999999999858e+00 3.000000000000000000e+00 1.885999999999999943e+01 4.000000000000000000e+00 0.000000000000000000e+00 1.000000000000000000e+00
8.000000000000000000e+00 3.000000000000000000e+00 1.914000000000000057e+01 4.000000000000000000e+00 0.000000000000000000e+00 1.000000000000000000e+00
8.000000000000000000e+00 3.000000000000000000e+00 2.035999999999999943e+01 4.000000000000000000e+00 0.000000000000000000e+00 1.000000000000000000e+00
8.000000000000000000e+00 3.000000000000000000e+00 2.100000000000000000e+01 4.000000000000000000e+00 0.000000000000000000e+00 1.000000000000000000e+00
8.000000000000000000e+00 3.000000000000000000e+00 2.100000000000000000e+01 4.000000000000000000e+00 2.200000000000000011e-01 1.000000000000000000e+00
8.000000000000000000e+00 3.000000000000000000e+00 2.117999999999999972e+01 4.160000000000000142e+00 1.000000000000000000e+00 1.000000000000000000e+00
7.480000000000000426e+00 3.000000000000000000e+00 2.189999999999999858e+01 4.000000000000000000e+00 5.999999999999999778e-02 1.000000000000000000e+00
7.000000000000000000e+00 3.000000000000000000e+00 2.266000000000000014e+01 4.419999999999999929e+00 7.600000000000000089e-01 1.000000000000000000e+00
7.000000000000000000e+00 3.000000000000000000e+00 2.292000000000000171e+01 4.000000000000000000e+00 1.000000000000000000e+00 1.000000000000000000e+00
7.900000000000000355e+00 3.000000000000000000e+00 2.366000000000000014e+01 4.559999999999999609e+00 1.000000000000000000e+00 1.000000000000000000e+00
7.660000000000000142e+00 3.000000000000000000e+00 2.407999999999999829e+01 5.000000000000000000e+00 1.000000000000000000e+00 1.000000000000000000e+00
7.339999999999999858e+00 3.000000000000000000e+00 2.412000000000000099e+01 5.000000000000000000e+00 1.000000000000000000e+00 1.000000000000000000e+00
7.500000000000000000e+00 3.000000000000000000e+00 2.353999999999999915e+01 5.000000000000000000e+00 1.679999999999999938e+00 1.000000000000000000e+00
7.940000000000000391e+00 3.000000000000000000e+00 2.300000000000000000e+01 5.000000000000000000e+00 2.000000000000000000e+00 1.000000000000000000e+00
7.759999999999999787e+00 3.000000000000000000e+00 2.421999999999999886e+01 5.000000000000000000e+00 2.000000000000000000e+00 1.000000000000000000e+00
7.000000000000000000e+00 3.000000000000000000e+00 2.500000000000000000e+01 5.000000000000000000e+00 2.000000000000000000e+00 1.000000000000000000e+00
7.160000000000000142e+00 3.000000000000000000e+00 2.421999999999999886e+01 5.000000000000000000e+00 2.000000000000000000e+00 1.000000000000000000e+00
7.000000000000000000e+00 3.000000000000000000e+00 2.369999999999999929e+01 5.000000000000000000e+00 2.000000000000000000e+00 1.000000000000000000e+00
7.620000000000000107e+00 3.000000000000000000e+00 2.353999999999999915e+01 5.000000000000000000e+00 2.000000000000000000e+00 1.000000000000000000e+00
8.720000000000000639e+00 2.839999999999999858e+00 4.000000000000000000e+00 2.000000000000000000e+00 0.000000000000000000e+00 1.000000000000000000e+00
7.280000000000000249e+00 2.000000000000000000e+00 4.000000000000000000e+00 2.000000000000000000e+00 0.000000000000000000e+00 1.000000000000000000e+00
7.240000000000000213e+00 2.000000000000000000e+00 4.000000000000000000e+00 2.000000000000000000e+00 0.000000000000000000e+00 1.000000000000000000e+00
7.000000000000000000e+00 2.000000000000000000e+00 4.000000000000000000e+00 2.000000000000000000e+00 0.000000000000000000e+00 1.000000000000000000e+00
7.000000000000000000e+00 2.000000000000000000e+00 4.000000000000000000e+00 2.000000000000000000e+00 0.000000000000000000e+00 1.000000000000000000e+00
7.000000000000000000e+00 2.000000000000000000e+00 4.000000000000000000e+00 2.000000000000000000e+00 0.000000000000000000e+00 1.000000000000000000e+00
6.540000000000000036e+00 2.000000000000000000e+00 4.000000000000000000e+00 2.000000000000000000e+00 0.000000000000000000e+00 1.000000000000000000e+00
6.000000000000000000e+00 2.000000000000000000e+00 4.000000000000000000e+00 2.000000000000000000e+00 0.000000000000000000e+00 1.000000000000000000e+00
6.000000000000000000e+00 2.000000000000000000e+00 4.000000000000000000e+00 2.000000000000000000e+00 0.000000000000000000e+00 1.000000000000000000e+00
5.879999999999999893e+00 2.000000000000000000e+00 4.000000000000000000e+00 2.000000000000000000e+00 0.000000000000000000e+00 1.000000000000000000e+00
5.000000000000000000e+00 2.000000000000000000e+00 4.000000000000000000e+00 2.000000000000000000e+00 0.000000000000000000e+00 1.000000000000000000e+00
5.000000000000000000e+00 2.000000000000000000e+00 3.959999999999999964e+00 2.000000000000000000e+00 0.000000000000000000e+00 1.000000000000000000e+00
5.000000000000000000e+00 2.000000000000000000e+00 3.020000000000000018e+00 2.000000000000000000e+00 0.000000000000000000e+00 1.000000000000000000e+00
5.000000000000000000e+00 2.000000000000000000e+00 3.279999999999999805e+00 2.000000000000000000e+00 0.000000000000000000e+00 1.000000000000000000e+00
5.000000000000000000e+00 2.000000000000000000e+00 3.459999999999999964e+00 2.000000000000000000e+00 0.000000000000000000e+00 1.000000000000000000e+00
4.280000000000000249e+00 2.000000000000000000e+00 3.299999999999999822e+00 2.000000000000000000e+00 0.000000000000000000e+00 1.000000000000000000e+00
4.980000000000000426e+00 2.000000000000000000e+00 3.899999999999999911e+00 2.000000000000000000e+00 0.000000000000000000e+00 1.000000000000000000e+00
4.000000000000000000e+00 2.000000000000000000e+00 3.520000000000000018e+00 2.000000000000000000e+00 0.000000000000000000e+00 1.000000000000000000e+00
4.000000000000000000e+00 2.000000000000000000e+00 3.000000000000000000e+00 2.000000000000000000e+00 0.000000000000000000e+00 1.000000000000000000e+00
4.200000000000000178e+00 2.000000000000000000e+00 3.000000000000000000e+00 2.000000000000000000e+00 0.000000000000000000e+00 1.000000000000000000e+00
4.599999999999999645e+00 2.000000000000000000e+00 3.459999999999999964e+00 2.000000000000000000e+00 0.000000000000000000e+00 1.000000000000000000e+00
4.059999999999999609e+00 2.000000000000000000e+00 4.000000000000000000e+00 1.580000000000000071e+00 0.000000000000000000e+00 1.000000000000000000e+00
5.000000000000000000e+00 2.000000000000000000e+00 4.000000000000000000e+00 2.000000000000000000e+00 0.000000000000000000e+00 1.000000000000000000e+00
5.000000000000000000e+00 2.000000000000000000e+00 4.000000000000000000e+00 2.000000000000000000e+00 0.000000000000000000e+00 1.000000000000000000e+00
5.000000000000000000e+00 2.000000000000000000e+00 4.000000000000000000e+00 2.000000000000000000e+00 0.000000000000000000e+00 1.000000000000000000e+00
5.000000000000000000e+00 2.000000000000000000e+00 4.000000000000000000e+00 2.000000000000000000e+00 0.000000000000000000e+00 1.000000000000000000e+00
5.000000000000000000e+00 2.000000000000000000e+00 4.000000000000000000e+00 2.000000000000000000e+00 0.000000000000000000e+00 1.000000000000000000e+00
5.000000000000000000e+00 2.000000000000000000e+00 4.000000000000000000e+00 2.000000000000000000e+00 0.000000000000000000e+00 1.000000000000000000e+00
5.000000000000000000e+00 2.000000000000000000e+00 4.000000000000000000e+00 2.000000000000000000e+00 0.000000000000000000e+00 1.000000000000000000e+00
5.000000000000000000e+00 2.000000000000000000e+00 4.000000000000000000e+00 2.000000000000000000e+00 0.000000000000000000e+00 1.000000000000000000e+00
5.000000000000000000e+00 2.000000000000000000e+00 4.000000000000000000e+00 2.000000000000000000e+00 0.000000000000000000e+00 1.000000000000000000e+00
5.139999999999999680e+00 2.000000000000000000e+00 4.000000000000000000e+00 2.000000000000000000e+00 0.000000000000000000e+00 1.000000000000000000e+00
5.000000000000000000e+00 2.000000000000000000e+00 3.720000000000000195e+00 2.000000000000000000e+00 0.000000000000000000e+00 1.000000000000000000e+00
5.000000000000000000e+00 2.000000000000000000e+00 3.479999999999999982e+00 2.000000000000000000e+00 0.000000000000000000e+00 1.000000000000000000e+00
5.000000000000000000e+00 2.000000000000000000e+00 3.879999999999999893e+00 2.000000000000000000e+00 0.000000000000000000e+00 1.000000000000000000e+00
5.000000000000000000e+00 2.000000000000000000e+00 4.000000000000000000e+00 2.000000000000000000e+00 0.000000000000000000e+00 1.000000000000000000e+00
5.000000000000000000e+00 2.000000000000000000e+00 3.859999999999999876e+00 2.000000000000000000e+00 0.000000000000000000e+00 1.000000000000000000e+00
5.000000000000000000e+00 2.000000000000000000e+00 4.000000000000000000e+00 2.000000000000000000e+00 0.000000000000000000e+00 1.000000000000000000e+00
5.000000000000000000e+00 2.000000000000000000e+00 3.939999999999999947e+00 2.000000000000000000e+00 0.000000000000000000e+00 1.000000000000000000e+00
5.000000000000000000e+00 2.000000000000000000e+00 3.339999999999999858e+00 2.000000000000000000e+00 0.000000000000000000e+00 1.000000000000000000e+00
2.300000000000000000e+01 4.900000000000000000e+01 2.255999999999999872e+01 2.405999999999999872e+01 1.251999999999999957e+01 3.178000000000000114e+01
2.269999999999999929e+01 5.006000000000000227e+01 2.235999999999999943e+01 2.350000000000000000e+01 1.256000000000000050e+01 3.325999999999999801e+01
2.200000000000000000e+01 4.870000000000000284e+01 2.182000000000000028e+01 2.305999999999999872e+01 1.272000000000000064e+01 3.342000000000000171e+01
2.200000000000000000e+01 4.965999999999999659e+01 2.137999999999999901e+01 2.326000000000000156e+01 1.291999999999999993e+01 3.400000000000000000e+01
2.200000000000000000e+01 4.832000000000000028e+01 2.050000000000000000e+01 2.300000000000000000e+01 1.206000000000000050e+01 3.311999999999999744e+01
2.192000000000000171e+01 4.642000000000000171e+01 2.044000000000000128e+01 2.257999999999999829e+01 1.200000000000000000e+01 3.192000000000000171e+01
2.101999999999999957e+01 4.592000000000000171e+01 2.100000000000000000e+01 2.266000000000000014e+01 1.146000000000000085e+01 3.155999999999999872e+01
2.055999999999999872e+01 4.821999999999999886e+01 2.046000000000000085e+01 2.194000000000000128e+01 1.100000000000000000e+01 3.000000000000000000e+01
1.998000000000000043e+01 4.629999999999999716e+01 1.964000000000000057e+01 2.135999999999999943e+01 1.041999999999999993e+01 2.896000000000000085e+01
1.960000000000000142e+01 4.707999999999999829e+01 1.900000000000000000e+01 2.098000000000000043e+01 1.030000000000000071e+01 2.798000000000000043e+01
1.880000000000000071e+01 4.721999999999999886e+01 1.900000000000000000e+01 2.000000000000000000e+01 1.003999999999999915e+01 2.644000000000000128e+01
1.846000000000000085e+01 4.500000000000000000e+01 1.810000000000000142e+01 2.000000000000000000e+01 1.000000000000000000e+01 2.426000000000000156e+01
1.796000000000000085e+01 4.365999999999999659e+01 1.800000000000000000e+01 1.948000000000000043e+01 1.000000000000000000e+01 2.362000000000000099e+01
1.700000000000000000e+01 4.214000000000000057e+01 1.776000000000000156e+01 1.903999999999999915e+01 1.000000000000000000e+01 2.264000000000000057e+01
1.650000000000000000e+01 4.071999999999999886e+01 1.800000000000000000e+01 1.955999999999999872e+01 1.000000000000000000e+01 2.200000000000000000e+01
1.600000000000000000e+01 4.060000000000000142e+01 1.750000000000000000e+01 2.032000000000000028e+01 1.017999999999999972e+01 2.178000000000000114e+01
1.569999999999999929e+01 4.047999999999999687e+01 1.760000000000000142e+01 2.000000000000000000e+01 1.014000000000000057e+01 2.183999999999999986e+01
1.519999999999999929e+01 3.782000000000000028e+01 1.737999999999999901e+01 2.067999999999999972e+01 1.038000000000000078e+01 2.242000000000000171e+01
1.559999999999999964e+01 3.925999999999999801e+01 1.751999999999999957e+01 2.266000000000000014e+01 1.100000000000000000e+01 2.400000000000000000e+01
1.469999999999999929e+01 3.806000000000000227e+01 1.883999999999999986e+01 2.350000000000000000e+01 1.100000000000000000e+01 2.400000000000000000e+01
1.472000000000000064e+01 3.714000000000000057e+01 1.828000000000000114e+01 2.400000000000000000e+01 1.132000000000000028e+01 2.333999999999999986e+01
1.400000000000000000e+01 3.724000000000000199e+01 1.900000000000000000e+01 2.400000000000000000e+01 1.100000000000000000e+01 2.300000000000000000e+01
1.316000000000000014e+01 3.615999999999999659e+01 2.005999999999999872e+01 2.433999999999999986e+01 1.100000000000000000e+01 2.264000000000000057e+01
1.350000000000000000e+01 3.571999999999999886e+01 2.076000000000000156e+01 2.450000000000000000e+01 1.151999999999999957e+01 2.200000000000000000e+01
1.364000000000000057e+01 3.553999999999999915e+01 2.087999999999999901e+01 2.473999999999999844e+01 1.200000000000000000e+01 2.212000000000000099e+01
1.369999999999999929e+01 3.646000000000000085e+01 2.194000000000000128e+01 2.437999999999999901e+01 1.180000000000000071e+01 2.255999999999999872e+01
1.400000000000000000e+01 3.657999999999999829e+01 2.244000000000000128e+01 2.533999999999999986e+01 1.200000000000000000e+01 2.155999999999999872e+01
1.466000000000000014e+01 3.782000000000000028e+01 2.273999999999999844e+01 2.573999999999999844e+01 1.200000000000000000e+01 2.066000000000000014e+01
1.475999999999999979e+01 3.793999999999999773e+01 2.305999999999999872e+01 2.433999999999999986e+01 1.169999999999999929e+01 2.023999999999999844e+01
1.500000000000000000e+01 3.746000000000000085e+01 2.328000000000000114e+01 2.350000000000000000e+01 1.156000000000000050e+01 2.082000000000000028e+01
1.500000000000000000e+01 3.788000000000000256e+01 2.400000000000000000e+01 2.383999999999999986e+01 1.124000000000000021e+01 2.269999999999999929e+01
1.543999999999999950e+01 3.956000000000000227e+01 2.503999999999999915e+01 2.500000000000000000e+01 1.166000000000000014e+01 2.353999999999999915e+01
1.600000000000000000e+01 4.000000000000000000e+01 2.514000000000000057e+01 2.662000000000000099e+01 1.222000000000000064e+01 2.464000000000000057e+01
1.600000000000000000e+01 4.025999999999999801e+01 2.510000000000000142e+01 2.700000000000000000e+01 1.200000000000000000e+01 2.512000000000000099e+01
1.600000000000000000e+01 4.164000000000000057e+01 2.626000000000000156e+01 2.755999999999999872e+01 1.200000000000000000e+01 2.700000000000000000e+01
1.601999999999999957e+01 4.034000000000000341e+01 2.696000000000000085e+01 2.878000000000000114e+01 1.200000000000000000e+01 2.700000000000000000e+01
1.694000000000000128e+01 3.857999999999999829e+01 2.700000000000000000e+01 2.855999999999999872e+01 1.200000000000000000e+01 2.744000000000000128e+01
1.794000000000000128e+01 3.700000000000000000e+01 2.714000000000000057e+01 3.114000000000000057e+01 1.309999999999999964e+01 2.926000000000000156e+01
1.900000000000000000e+01 3.797999999999999687e+01 2.800000000000000000e+01 3.400000000000000000e+01 1.400000000000000000e+01 2.964000000000000057e+01
1.900000000000000000e+01 3.820000000000000284e+01 2.800000000000000000e+01 3.400000000000000000e+01 1.432000000000000028e+01 2.910000000000000142e+01
7.200000000000000178e+00 2.000000000000000000e+00 1.300000000000000000e+01 3.000000000000000000e+00 0.000000000000000000e+00 1.000000000000000000e+00
7.000000000000000000e+00 2.000000000000000000e+00 1.300000000000000000e+01 3.000000000000000000e+00 0.000000000000000000e+00 1.000000000000000000e+00
7.719999999999999751e+00 2.000000000000000000e+00 1.300000000000000000e+01 3.000000000000000000e+00 0.000000000000000000e+00 1.000000000000000000e+00
8.000000000000000000e+00 2.000000000000000000e+00 1.314000000000000057e+01 3.000000000000000000e+00 0.000000000000000000e+00 1.000000000000000000e+00
8.039999999999999147e+00 2.000000000000000000e+00 1.400000000000000000e+01 3.000000000000000000e+00 0.000000000000000000e+00 1.000000000000000000e+00
8.000000000000000000e+00 2.000000000000000000e+00 1.369999999999999929e+01 3.000000000000000000e+00 0.000000000000000000e+00 1.000000000000000000e+00
8.660000000000000142e+00 2.000000000000000000e+00 1.416000000000000014e+01 3.000000000000000000e+00 0.000000000000000000e+00 1.000000000000000000e+00
8.000000000000000000e+00 2.000000000000000000e+00 1.485999999999999943e+01 3.000000000000000000e+00 0.000000000000000000e+00 1.000000000000000000e+00
8.000000000000000000e+00 2.000000000000000000e+00 1.506000000000000050e+01 3.000000000000000000e+00 0.000000000000000000e+00 1.000000000000000000e+00
8.000000000000000000e+00 2.000000000000000000e+00 1.556000000000000050e+01 3.000000000000000000e+00 0.000000000000000000e+00 1.000000000000000000e+00
8.800000000000000711e+00 2.000000000000000000e+00 1.600000000000000000e+01 3.000000000000000000e+00 0.000000000000000000e+00 1.000000000000000000e+00
9.000000000000000000e+00 2.000000000000000000e+00 1.588000000000000078e+01 3.000000000000000000e+00 0.000000000000000000e+00 1.000000000000000000e+00
8.339999999999999858e+00 2.000000000000000000e+00 1.600000000000000000e+01 3.000000000000000000e+00 0.000000000000000000e+00 1.000000000000000000e+00
8.000000000000000000e+00 2.000000000000000000e+00 1.600000000000000000e+01 3.000000000000000000e+00 0.000000000000000000e+00 1.000000000000000000e+00
8.000000000000000000e+00 2.000000000000000000e+00 1.600000000000000000e+01 3.000000000000000000e+00 0.000000000000000000e+00 1.000000000000000000e+00
8.000000000000000000e+00 2.000000000000000000e+00 1.553999999999999915e+01 3.000000000000000000e+00 0.000000000000000000e+00 1.000000000000000000e+00
8.000000000000000000e+00 2.000000000000000000e+00 1.500000000000000000e+01 4.000000000000000000e+00 0.000000000000000000e+00 1.000000000000000000e+00
8.000000000000000000e+00 2.000000000000000000e+00 1.498000000000000043e+01 4.000000000000000000e+00 0.000000000000000000e+00 1.000000000000000000e+00
8.000000000000000000e+00 2.000000000000000000e+00 1.411999999999999922e+01 4.000000000000000000e+00 0.000000000000000000e+00 1.000000000000000000e+00
8.000000000000000000e+00 2.000000000000000000e+00 1.427999999999999936e+01 3.839999999999999858e+00 0.000000000000000000e+00 1.000000000000000000e+00
8.000000000000000000e+00 2.000000000000000000e+00 1.500000000000000000e+01 3.000000000000000000e+00 0.000000000000000000e+00 1.000000000000000000e+00
7.519999999999999574e+00 2.000000000000000000e+00 1.548000000000000043e+01 3.000000000000000000e+00 0.000000000000000000e+00 1.000000000000000000e+00
8.000000000000000000e+00 2.000000000000000000e+00 1.511999999999999922e+01 3.000000000000000000e+00 0.000000000000000000e+00 1.000000000000000000e+00
8.000000000000000000e+00 2.000000000000000000e+00 1.500000000000000000e+01 3.000000000000000000e+00 0.000000000000000000e+00 1.000000000000000000e+00
7.240000000000000213e+00 2.000000000000000000e+00 1.500000000000000000e+01 3.000000000000000000e+00 0.000000000000000000e+00 1.000000000000000000e+00
7.000000000000000000e+00 2.000000000000000000e+00 1.500000000000000000e+01 3.000000000000000000e+00 0.000000000000000000e+00 1.000000000000000000e+00
7.000000000000000000e+00 2.000000000000000000e+00 1.519999999999999929e+01 3.000000000000000000e+00 0.000000000000000000e+00 1.000000000000000000e+00
7.280000000000000249e+00 2.000000000000000000e+00 1.530000000000000071e+01 3.000000000000000000e+00 0.000000000000000000e+00 1.000000000000000000e+00
7.219999999999999751e+00 2.000000000000000000e+00 1.500000000000000000e+01 3.000000000000000000e+00 0.000000000000000000e+00 1.000000000000000000e+00
8.000000000000000000e+00 2.000000000000000000e+00 1.500000000000000000e+01 3.000000000000000000e+00 0.000000000000000000e+00 1.000000000000000000e+00
8.000000000000000000e+00 2.000000000000000000e+00 1.500000000000000000e+01 3.339999999999999858e+00 0.000000000000000000e+00 1.000000000000000000e+00
8.000000000000000000e+00 2.000000000000000000e+00 1.446000000000000085e+01 4.000000000000000000e+00 0.000000000000000000e+00 1.000000000000000000e+00
8.300000000000000711e+00 2.000000000000000000e+00 1.593999999999999950e+01 4.000000000000000000e+00 0.000000000000000000e+00 1.000000000000000000e+00
8.919999999999999929e+00 2.000000000000000000e+00 1.614000000000000057e+01 4.000000000000000000e+00 0.000000000000000000e+00 1.000000000000000000e+00
8.560000000000000497e+00 2.600000000000000089e+00 1.646000000000000085e+01 4.000000000000000000e+00 0.000000000000000000e+00 1.000000000000000000e+00
9.000000000000000000e+00 3.000000000000000000e+00 1.717999999999999972e+01 4.000000000000000000e+00 0.000000000000000000e+00 1.000000000000000000e+00
9.000000000000000000e+00 3.000000000000000000e+00 1.767999999999999972e+01 4.000000000000000000e+00 1.000000000000000000e+00 1.000000000000000000e+00
8.939999999999999503e+00 3.000000000000000000e+00 1.746000000000000085e+01 4.000000000000000000e+00 1.000000000000000000e+00 1.000000000000000000e+00
8.900000000000000355e+00 3.000000000000000000e+00 1.800000000000000000e+01 4.000000000000000000e+00 1.000000000000000000e+00 1.000000000000000000e+00
9.000000000000000000e+00 3.000000000000000000e+00 1.848000000000000043e+01 4.000000000000000000e+00 1.000000000000000000e+00 1.000000000000000000e+00
8.519999999999999574e+00 2.000000000000000000e+00 1.500000000000000000e+01 4.000000000000000000e+00 0.000000000000000000e+00 1.000000000000000000e+00
8.000000000000000000e+00 2.000000000000000000e+00 1.482000000000000028e+01 4.000000000000000000e+00 0.000000000000000000e+00 1.000000000000000000e+00
8.619999999999999218e+00 2.000000000000000000e+00 1.409999999999999964e+01 4.000000000000000000e+00 0.000000000000000000e+00 1.000000000000000000e+00
8.000000000000000000e+00 2.000000000000000000e+00 1.485999999999999943e+01 4.000000000000000000e+00 0.000000000000000000e+00 1.000000000000000000e+00
8.000000000000000000e+00 2.000000000000000000e+00 1.414000000000000057e+01 4.000000000000000000e+00 2.999999999999999889e-01 1.000000000000000000e+00
8.359999999999999432e+00 2.000000000000000000e+00 1.416000000000000014e+01 4.000000000000000000e+00 1.000000000000000000e+00 1.000000000000000000e+00
9.000000000000000000e+00 2.000000000000000000e+00 1.400000000000000000e+01 4.000000000000000000e+00 1.000000000000000000e+00 1.000000000000000000e+00
8.699999999999999289e+00 2.000000000000000000e+00 1.400000000000000000e+01 4.000000000000000000e+00 1.000000000000000000e+00 1.000000000000000000e+00
9.000000000000000000e+00 2.740000000000000213e+00 1.401999999999999957e+01 4.000000000000000000e+00 1.520000000000000018e+00 1.000000000000000000e+00
9.000000000000000000e+00 2.479999999999999982e+00 1.469999999999999929e+01 4.000000000000000000e+00 2.000000000000000000e+00 1.000000000000000000e+00
9.000000000000000000e+00 2.000000000000000000e+00 1.474000000000000021e+01 4.000000000000000000e+00 2.000000000000000000e+00 1.000000000000000000e+00
9.679999999999999716e+00 2.359999999999999876e+00 1.500000000000000000e+01 4.000000000000000000e+00 2.000000000000000000e+00 1.000000000000000000e+00
1.000000000000000000e+01 2.000000000000000000e+00 1.517999999999999972e+01 4.000000000000000000e+00 2.000000000000000000e+00 1.000000000000000000e+00
1.019999999999999929e+01 2.180000000000000160e+00 1.500000000000000000e+01 4.000000000000000000e+00 2.000000000000000000e+00 1.000000000000000000e+00
1.000000000000000000e+01 2.000000000000000000e+00 1.500000000000000000e+01 4.000000000000000000e+00 2.000000000000000000e+00 1.000000000000000000e+00
1.016000000000000014e+01 2.339999999999999858e+00 1.475999999999999979e+01 3.459999999999999964e+00 1.820000000000000062e+00 1.000000000000000000e+00
1.000000000000000000e+01 2.000000000000000000e+00 1.525999999999999979e+01 3.319999999999999840e+00 1.000000000000000000e+00 1.000000000000000000e+00
1.000000000000000000e+01 2.000000000000000000e+00 1.525999999999999979e+01 3.000000000000000000e+00 1.000000000000000000e+00 1.000000000000000000e+00
1.000000000000000000e+01 2.000000000000000000e+00 1.533999999999999986e+01 3.000000000000000000e+00 5.600000000000000533e-01 1.000000000000000000e+00
9.380000000000000782e+00 2.000000000000000000e+00 1.500000000000000000e+01 3.000000000000000000e+00 0.000000000000000000e+00 1.000000000000000000e+00
9.300000000000000711e+00 2.000000000000000000e+00 1.500000000000000000e+01 3.459999999999999964e+00 0.000000000000000000e+00 1.000000000000000000e+00
8.339999999999999858e+00 2.000000000000000000e+00 1.424000000000000021e+01 3.839999999999999858e+00 0.000000000000000000e+00 1.000000000000000000e+00
8.000000000000000000e+00 2.000000000000000000e+00 1.432000000000000028e+01 4.000000000000000000e+00 0.000000000000000000e+00 1.000000000000000000e+00
7.419999999999999929e+00 2.000000000000000000e+00 1.441999999999999993e+01 4.000000000000000000e+00 0.000000000000000000e+00 1.000000000000000000e+00
7.759999999999999787e+00 2.000000000000000000e+00 1.400000000000000000e+01 4.000000000000000000e+00 0.000000000000000000e+00 1.000000000000000000e+00
8.000000000000000000e+00 2.000000000000000000e+00 1.427999999999999936e+01 4.000000000000000000e+00 0.000000000000000000e+00 1.000000000000000000e+00
8.000000000000000000e+00 2.000000000000000000e+00 1.369999999999999929e+01 4.000000000000000000e+00 0.000000000000000000e+00 1.000000000000000000e+00
8.000000000000000000e+00 2.000000000000000000e+00 1.382000000000000028e+01 4.000000000000000000e+00 0.000000000000000000e+00 1.000000000000000000e+00
8.619999999999999218e+00 2.000000000000000000e+00 1.340000000000000036e+01 4.000000000000000000e+00 0.000000000000000000e+00 1.000000000000000000e+00
8.000000000000000000e+00 2.000000000000000000e+00 1.400000000000000000e+01 4.000000000000000000e+00 0.000000000000000000e+00 1.000000000000000000e+00
8.740000000000000213e+00 2.000000000000000000e+00 1.400000000000000000e+01 4.000000000000000000e+00 0.000000000000000000e+00 1.000000000000000000e+00
9.000000000000000000e+00 2.000000000000000000e+00 1.424000000000000021e+01 4.000000000000000000e+00 0.000000000000000000e+00 1.000000000000000000e+00
8.339999999999999858e+00 2.000000000000000000e+00 1.500000000000000000e+01 4.000000000000000000e+00 0.000000000000000000e+00 1.000000000000000000e+00
8.000000000000000000e+00 2.000000000000000000e+00 1.500000000000000000e+01 4.000000000000000000e+00 0.000000000000000000e+00 1.000000000000000000e+00
8.000000000000000000e+00 2.000000000000000000e+00 1.500000000000000000e+01 4.000000000000000000e+00 0.000000000000000000e+00 1.000000000000000000e+00
8.000000000000000000e+00 2.000000000000000000e+00 1.500000000000000000e+01 4.000000000000000000e+00 0.000000000000000000e+00 1.000000000000000000e+00
8.400000000000000355e+00 2.000000000000000000e+00 1.524000000000000021e+01 4.000000000000000000e+00 0.000000000000000000e+00 1.000000000000000000e+00
8.900000000000000355e+00 2.000000000000000000e+00 1.575999999999999979e+01 4.000000000000000000e+00 0.000000000000000000e+00 1.000000000000000000e+00
9.179999999999999716e+00 2.000000000000000000e+00 1.600000000000000000e+01 4.000000000000000000e+00 0.000000000000000000e+00 1.000000000000000000e+00
1.000000000000000000e+01 2.000000000000000000e+00 1.600000000000000000e+01 4.000000000000000000e+00 0.000000000000000000e+00 1.000000000000000000e+00
1.227999999999999936e+01 4.000000000000000000e+00 4.000000000000000000e+00 2.000000000000000000e+00 0.000000000000000000e+00 2.379999999999999893e+00
1.200000000000000000e+01 4.000000000000000000e+00 4.000000000000000000e+00 2.000000000000000000e+00 0.000000000000000000e+00 2.000000000000000000e+00
1.200000000000000000e+01 4.000000000000000000e+00 4.000000000000000000e+00 2.000000000000000000e+00 0.000000000000000000e+00 1.459999999999999964e+00
1.200000000000000000e+01 4.000000000000000000e+00 4.000000000000000000e+00 2.000000000000000000e+00 0.000000000000000000e+00 1.000000000000000000e+00
1.233999999999999986e+01 4.000000000000000000e+00 4.000000000000000000e+00 2.000000000000000000e+00 0.000000000000000000e+00 1.000000000000000000e+00
1.200000000000000000e+01 3.240000000000000213e+00 4.000000000000000000e+00 2.000000000000000000e+00 0.000000000000000000e+00 1.000000000000000000e+00
1.200000000000000000e+01 3.000000000000000000e+00 3.620000000000000107e+00 2.000000000000000000e+00 0.000000000000000000e+00 1.000000000000000000e+00
1.200000000000000000e+01 3.000000000000000000e+00 3.979999999999999982e+00 2.000000000000000000e+00 0.000000000000000000e+00 1.000000000000000000e+00
1.200000000000000000e+01 3.000000000000000000e+00 4.000000000000000000e+00 2.000000000000000000e+00 0.000000000000000000e+00 1.000000000000000000e+00
1.177999999999999936e+01 3.000000000000000000e+00 4.000000000000000000e+00 2.000000000000000000e+00 0.000000000000000000e+00 1.000000000000000000e+00
1.100000000000000000e+01 3.000000000000000000e+00 4.000000000000000000e+00 2.000000000000000000e+00 0.000000000000000000e+00 1.000000000000000000e+00
1.100000000000000000e+01 3.000000000000000000e+00 4.000000000000000000e+00 2.000000000000000000e+00 0.000000000000000000e+00 1.000000000000000000e+00
1.025999999999999979e+01 3.000000000000000000e+00 4.000000000000000000e+00 2.000000000000000000e+00 0.000000000000000000e+00 1.000000000000000000e+00
1.009999999999999964e+01 3.000000000000000000e+00 4.000000000000000000e+00 2.000000000000000000e+00 0.000000000000000000e+00 1.000000000000000000e+00
9.619999999999999218e+00 3.000000000000000000e+00 4.000000000000000000e+00 2.000000000000000000e+00 0.000000000000000000e+00 1.000000000000000000e+00
9.279999999999999361e+00 3.000000000000000000e+00 4.000000000000000000e+00 2.000000000000000000e+00 0.000000000000000000e+00 1.000000000000000000e+00
9.000000000000000000e+00 3.000000000000000000e+00 4.000000000000000000e+00 2.000000000000000000e+00 0.000000000000000000e+00 1.000000000000000000e+00
9.000000000000000000e+00 3.000000000000000000e+00 4.000000000000000000e+00 2.000000000000000000e+00 0.000000000000000000e+00 1.000000000000000000e+00
9.939999999999999503e+00 3.000000000000000000e+00 4.000000000000000000e+00 2.000000000000000000e+00 0.000000000000000000e+00 1.000000000000000000e+00
9.500000000000000000e+00 3.000000000000000000e+00 4.000000000000000000e+00 2.000000000000000000e+00 0.000000000000000000e+00 1.000000000000000000e+00
9.919999999999999929e+00 3.000000000000000000e+00 4.000000000000000000e+00 2.000000000000000000e+00 0.000000000000000000e+00 1.000000000000000000e+00
1.000000000000000000e+01 3.000000000000000000e+00 4.000000000000000000e+00 2.000000000000000000e+00 0.000000000000000000e+00 1.000000000000000000e+00
1.000000000000000000e+01 3.000000000000000000e+00 4.000000000000000000e+00 2.000000000000000000e+00 0.000000000000000000e+00 1.000000000000000000e+00
1.000000000000000000e+01 3.000000000000000000e+00 4.000000000000000000e+00 2.000000000000000000e+00 0.000000000000000000e+00 1.000000000000000000e+00
9.919999999999999929e+00 3.000000000000000000e+00 4.000000000000000000e+00 2.000000000000000000e+00 0.000000000000000000e+00 1.000000000000000000e+00
9.980000000000000426e+00 3.000000000000000000e+00 4.000000000000000000e+00 2.000000000000000000e+00 0.000000000000000000e+00 1.000000000000000000e+00
1.000000000000000000e+01 3.000000000000000000e+00 4.000000000000000000e+00 2.000000000000000000e+00 0.000000000000000000e+00 1.000000000000000000e+00
1.000000000000000000e+01 3.000000000000000000e+00 4.000000000000000000e+00 2.000000000000000000e+00 0.000000000000000000e+00 1.000000000000000000e+00
1.000000000000000000e+01 3.000000000000000000e+00 4.000000000000000000e+00 2.000000000000000000e+00 0.000000000000000000e+00 1.000000000000000000e+00
1.041999999999999993e+01 3.000000000000000000e+00 4.000000000000000000e+00 2.000000000000000000e+00 0.000000000000000000e+00 1.000000000000000000e+00
1.067999999999999972e+01 3.000000000000000000e+00 4.000000000000000000e+00 2.000000000000000000e+00 0.000000000000000000e+00 1.000000000000000000e+00
1.008000000000000007e+01 3.000000000000000000e+00 4.000000000000000000e+00 2.000000000000000000e+00 0.000000000000000000e+00 1.000000000000000000e+00
1.096000000000000085e+01 3.000000000000000000e+00 4.000000000000000000e+00 2.000000000000000000e+00 0.000000000000000000e+00 1.000000000000000000e+00
1.067999999999999972e+01 3.000000000000000000e+00 4.000000000000000000e+00 2.000000000000000000e+00 0.000000000000000000e+00 1.000000000000000000e+00
1.053999999999999915e+01 3.000000000000000000e+00 4.000000000000000000e+00 2.000000000000000000e+00 0.000000000000000000e+00 1.000000000000000000e+00
1.000000000000000000e+01 3.000000000000000000e+00 4.000000000000000000e+00 2.000000000000000000e+00 0.000000000000000000e+00 1.000000000000000000e+00
1.000000000000000000e+01 3.000000000000000000e+00 4.000000000000000000e+00 2.000000000000000000e+00 0.000000000000000000e+00 1.000000000000000000e+00
9.880000000000000782e+00 3.000000000000000000e+00 4.000000000000000000e+00 2.000000000000000000e+00 0.000000000000000000e+00 1.000000000000000000e+00
9.000000000000000000e+00 3.000000000000000000e+00 4.000000000000000000e+00 2.000000000000000000e+00 0.000000000000000000e+00 1.000000000000000000e+00
9.000000000000000000e+00 3.000000000000000000e+00 4.000000000000000000e+00 2.000000000000000000e+00 0.000000000000000000e+00 1.000000000000000000e+00
2.669999999999999929e+01 9.000000000000000000e+00 7.131999999999999318e+01 1.500000000000000000e+01 1.710000000000000142e+01 1.846000000000000085e+01
2.742000000000000171e+01 9.099999999999999645e+00 7.048000000000000398e+01 1.553999999999999915e+01 1.732000000000000028e+01 1.805999999999999872e+01
2.812000000000000099e+01 9.439999999999999503e+00 7.031999999999999318e+01 1.600000000000000000e+01 1.800000000000000000e+01 1.800000000000000000e+01
2.800000000000000000e+01 9.339999999999999858e+00 6.965999999999999659e+01 1.600000000000000000e+01 1.800000000000000000e+01 1.846000000000000085e+01
2.812000000000000099e+01 9.939999999999999503e+00 7.051999999999999602e+01 1.553999999999999915e+01 1.800000000000000000e+01 1.900000000000000000e+01
2.807999999999999829e+01 9.960000000000000853e+00 7.070000000000000284e+01 1.500000000000000000e+01 1.800000000000000000e+01 1.885999999999999943e+01
2.801999999999999957e+01 9.039999999999999147e+00 6.990000000000000568e+01 1.433999999999999986e+01 1.800000000000000000e+01 1.800000000000000000e+01
2.980000000000000071e+01 1.000000000000000000e+01 6.750000000000000000e+01 1.448000000000000043e+01 1.739999999999999858e+01 1.892000000000000171e+01
2.912000000000000099e+01 9.099999999999999645e+00 6.754000000000000625e+01 1.316000000000000014e+01 1.475999999999999979e+01 1.900000000000000000e+01
2.900000000000000000e+01 9.000000000000000000e+00 6.592000000000000171e+01 1.300000000000000000e+01 1.400000000000000000e+01 1.898000000000000043e+01
2.937999999999999901e+01 9.000000000000000000e+00 6.407999999999999829e+01 1.300000000000000000e+01 1.333999999999999986e+01 1.807999999999999829e+01
2.862000000000000099e+01 8.759999999999999787e+00 6.307999999999999829e+01 1.285999999999999943e+01 1.275999999999999979e+01 1.837999999999999901e+01
2.821999999999999886e+01 8.060000000000000497e+00 6.332000000000000028e+01 1.206000000000000050e+01 1.296000000000000085e+01 1.821999999999999886e+01
2.869999999999999929e+01 8.000000000000000000e+00 6.275999999999999801e+01 1.200000000000000000e+01 1.243999999999999950e+01 1.800000000000000000e+01
2.832000000000000028e+01 8.000000000000000000e+00 6.167999999999999972e+01 1.290000000000000036e+01 1.200000000000000000e+01 1.800000000000000000e+01
2.785999999999999943e+01 8.000000000000000000e+00 5.921999999999999886e+01 1.300000000000000000e+01 1.200000000000000000e+01 1.800000000000000000e+01
2.730000000000000071e+01 8.000000000000000000e+00 5.770000000000000284e+01 1.300000000000000000e+01 1.200000000000000000e+01 1.800000000000000000e+01
2.600000000000000000e+01 8.000000000000000000e+00 5.732000000000000028e+01 1.240000000000000036e+01 1.098000000000000043e+01 1.705999999999999872e+01
2.600000000000000000e+01 8.000000000000000000e+00 5.600000000000000000e+01 1.300000000000000000e+01 1.100000000000000000e+01 1.700000000000000000e+01
2.600000000000000000e+01 8.000000000000000000e+00 5.625999999999999801e+01 1.300000000000000000e+01 1.100000000000000000e+01 1.700000000000000000e+01
2.466000000000000014e+01 8.000000000000000000e+00 5.550000000000000000e+01 1.300000000000000000e+01 1.090000000000000036e+01 1.700000000000000000e+01
2.389999999999999858e+01 8.080000000000000071e+00 5.600000000000000000e+01 1.300000000000000000e+01 1.056000000000000050e+01 1.696000000000000085e+01
2.242000000000000171e+01 8.000000000000000000e+00 5.567999999999999972e+01 1.300000000000000000e+01 1.000000000000000000e+01 1.700000000000000000e+01
2.301999999999999957e+01 8.720000000000000639e+00 5.482000000000000028e+01 1.300000000000000000e+01 1.000000000000000000e+01 1.719999999999999929e+01
2.300000000000000000e+01 9.000000000000000000e+00 5.311999999999999744e+01 1.235999999999999943e+01 1.000000000000000000e+01 1.737999999999999901e+01
2.457999999999999829e+01 9.019999999999999574e+00 5.397999999999999687e+01 1.200000000000000000e+01 9.359999999999999432e+00 1.800000000000000000e+01
2.966000000000000014e+01 1.000000000000000000e+01 5.614000000000000057e+01 1.280000000000000071e+01 9.000000000000000000e+00 1.800000000000000000e+01
3.033999999999999986e+01 1.000000000000000000e+01 5.635999999999999943e+01 1.300000000000000000e+01 8.919999999999999929e+00 1.800000000000000000e+01
3.116000000000000014e+01 1.000000000000000000e+01 5.902000000000000313e+01 1.230000000000000071e+01 8.339999999999999858e+00 1.776000000000000156e+01
3.185999999999999943e+01 1.000000000000000000e+01 5.874000000000000199e+01 1.300000000000000000e+01 9.000000000000000000e+00 1.800000000000000000e+01
3.200000000000000000e+01 1.014000000000000057e+01 5.865999999999999659e+01 1.300000000000000000e+01 9.000000000000000000e+00 1.800000000000000000e+01
3.234000000000000341e+01 1.064000000000000057e+01 5.856000000000000227e+01 1.224000000000000021e+01 9.000000000000000000e+00 1.800000000000000000e+01
3.364000000000000057e+01 1.100000000000000000e+01 5.800000000000000000e+01 1.208000000000000007e+01 9.000000000000000000e+00 1.800000000000000000e+01
3.247999999999999687e+01 1.101999999999999957e+01 5.828000000000000114e+01 1.200000000000000000e+01 9.000000000000000000e+00 1.846000000000000085e+01
3.365999999999999659e+01 1.156000000000000050e+01 5.929999999999999716e+01 1.200000000000000000e+01 9.000000000000000000e+00 1.900000000000000000e+01
3.579999999999999716e+01 1.135999999999999943e+01 6.117999999999999972e+01 1.230000000000000071e+01 9.000000000000000000e+00 1.900000000000000000e+01
3.256000000000000227e+01 1.109999999999999964e+01 6.142000000000000171e+01 1.180000000000000071e+01 9.359999999999999432e+00 1.919999999999999929e+01
3.256000000000000227e+01 1.200000000000000000e+01 6.178000000000000114e+01 1.167999999999999972e+01 1.000000000000000000e+01 2.000000000000000000e+01
3.215999999999999659e+01 1.200000000000000000e+01 5.982000000000000028e+01 1.174000000000000021e+01 9.699999999999999289e+00 1.951999999999999957e+01
3.200000000000000000e+01 1.200000000000000000e+01 5.917999999999999972e+01 1.109999999999999964e+01 9.919999999999999929e+00 1.900000000000000000e+01
1.850000000000000000e+01 6.059999999999999609e+00 4.000000000000000000e+00 3.259999999999999787e+00 2.000000000000000000e+00 5.000000000000000000e+00
1.783999999999999986e+01 6.000000000000000000e+00 4.000000000000000000e+00 3.000000000000000000e+00 2.000000000000000000e+00 5.000000000000000000e+00
1.667999999999999972e+01 6.000000000000000000e+00 4.000000000000000000e+00 3.000000000000000000e+00 2.000000000000000000e+00 3.819999999999999840e+00
1.574000000000000021e+01 5.200000000000000178e+00 4.000000000000000000e+00 3.000000000000000000e+00 1.580000000000000071e+00 3.000000000000000000e+00
1.567999999999999972e+01 5.000000000000000000e+00 4.000000000000000000e+00 3.000000000000000000e+00 1.439999999999999947e+00 3.000000000000000000e+00
1.530000000000000071e+01 5.000000000000000000e+00 4.000000000000000000e+00 3.000000000000000000e+00 1.979999999999999982e+00 3.000000000000000000e+00
1.524000000000000021e+01 5.000000000000000000e+00 4.000000000000000000e+00 3.000000000000000000e+00 2.000000000000000000e+00 3.000000000000000000e+00
1.500000000000000000e+01 5.000000000000000000e+00 4.000000000000000000e+00 3.000000000000000000e+00 1.260000000000000009e+00 3.000000000000000000e+00
1.483999999999999986e+01 5.000000000000000000e+00 4.000000000000000000e+00 3.000000000000000000e+00 1.000000000000000000e+00 3.000000000000000000e+00
1.400000000000000000e+01 5.000000000000000000e+00 4.000000000000000000e+00 3.000000000000000000e+00 1.000000000000000000e+00 3.000000000000000000e+00
1.380000000000000071e+01 4.160000000000000142e+00 4.000000000000000000e+00 3.000000000000000000e+00 1.000000000000000000e+00 2.660000000000000142e+00
1.356000000000000050e+01 4.000000000000000000e+00 4.000000000000000000e+00 2.419999999999999929e+00 1.000000000000000000e+00 2.000000000000000000e+00
1.300000000000000000e+01 4.000000000000000000e+00 4.000000000000000000e+00 2.000000000000000000e+00 1.000000000000000000e+00 2.000000000000000000e+00
1.300000000000000000e+01 4.000000000000000000e+00 4.000000000000000000e+00 2.000000000000000000e+00 1.000000000000000000e+00 2.000000000000000000e+00
1.211999999999999922e+01 4.000000000000000000e+00 4.000000000000000000e+00 2.000000000000000000e+00 3.400000000000000244e-01 2.000000000000000000e+00
1.146000000000000085e+01 4.000000000000000000e+00 4.000000000000000000e+00 2.000000000000000000e+00 0.000000000000000000e+00 2.700000000000000178e+00
1.000000000000000000e+01 4.000000000000000000e+00 4.000000000000000000e+00 2.000000000000000000e+00 0.000000000000000000e+00 3.000000000000000000e+00
1.000000000000000000e+01 3.759999999999999787e+00 4.000000000000000000e+00 2.000000000000000000e+00 0.000000000000000000e+00 3.000000000000000000e+00
1.040000000000000036e+01 4.000000000000000000e+00 4.000000000000000000e+00 2.000000000000000000e+00 0.000000000000000000e+00 3.000000000000000000e+00
1.000000000000000000e+01 4.000000000000000000e+00 4.000000000000000000e+00 2.000000000000000000e+00 0.000000000000000000e+00 3.000000000000000000e+00
1.043999999999999950e+01 3.879999999999999893e+00 4.000000000000000000e+00 2.000000000000000000e+00 0.000000000000000000e+00 3.000000000000000000e+00
1.069999999999999929e+01 3.379999999999999893e+00 4.000000000000000000e+00 2.000000000000000000e+00 0.000000000000000000e+00 3.000000000000000000e+00
1.077999999999999936e+01 3.000000000000000000e+00 4.000000000000000000e+00 2.000000000000000000e+00 0.000000000000000000e+00 3.000000000000000000e+00
1.033999999999999986e+01 3.000000000000000000e+00 4.000000000000000000e+00 2.000000000000000000e+00 0.000000000000000000e+00 3.000000000000000000e+00
1.022000000000000064e+01 3.240000000000000213e+00 4.000000000000000000e+00 2.000000000000000000e+00 0.000000000000000000e+00 3.700000000000000178e+00
1.022000000000000064e+01 3.580000000000000071e+00 4.000000000000000000e+00 2.000000000000000000e+00 0.000000000000000000e+00 2.359999999999999876e+00
1.000000000000000000e+01 3.160000000000000142e+00 4.000000000000000000e+00 2.000000000000000000e+00 0.000000000000000000e+00 2.000000000000000000e+00
1.000000000000000000e+01 3.740000000000000213e+00 4.000000000000000000e+00 2.000000000000000000e+00 0.000000000000000000e+00 2.000000000000000000e+00
1.000000000000000000e+01 3.020000000000000018e+00 4.000000000000000000e+00 2.000000000000000000e+00 0.000000000000000000e+00 2.000000000000000000e+00
1.000000000000000000e+01 3.000000000000000000e+00 4.000000000000000000e+00 2.000000000000000000e+00 0.000000000000000000e+00 2.000000000000000000e+00
1.091999999999999993e+01 3.000000000000000000e+00 4.000000000000000000e+00 2.000000000000000000e+00 0.000000000000000000e+00 2.000000000000000000e+00
1.100000000000000000e+01 3.000000000000000000e+00 4.000000000000000000e+00 2.000000000000000000e+00 0.000000000000000000e+00 2.000000000000000000e+00
1.100000000000000000e+01 3.000000000000000000e+00 4.000000000000000000e+00 2.000000000000000000e+00 0.000000000000000000e+00 2.000000000000000000e+00
1.056000000000000050e+01 3.000000000000000000e+00 4.000000000000000000e+00 2.000000000000000000e+00 0.000000000000000000e+00 2.000000000000000000e+00
1.100000000000000000e+01 3.000000000000000000e+00 4.000000000000000000e+00 2.000000000000000000e+00 0.000000000000000000e+00 2.000000000000000000e+00
1.100000000000000000e+01 3.000000000000000000e+00 4.000000000000000000e+00 2.000000000000000000e+00 0.000000000000000000e+00 2.000000000000000000e+00
1.072000000000000064e+01 3.000000000000000000e+00 4.000000000000000000e+00 2.000000000000000000e+00 0.000000000000000000e+00 2.000000000000000000e+00
1.040000000000000036e+01 3.000000000000000000e+00 4.000000000000000000e+00 2.000000000000000000e+00 0.000000000000000000e+00 2.000000000000000000e+00
1.000000000000000000e+01 3.000000000000000000e+00 4.000000000000000000e+00 2.000000000000000000e+00 0.000000000000000000e+00 2.000000000000000000e+00
1.000000000000000000e+01 3.000000000000000000e+00 4.000000000000000000e+00 2.000000000000000000e+00 0.000000000000000000e+00 2.000000000000000000e+00
3.151999999999999957e+01 8.971999999999999886e+01 1.100000000000000000e+01 1.633999999999999986e+01 6.259999999999999787e+00 1.574000000000000021e+01
3.178000000000000114e+01 9.215999999999999659e+01 1.100000000000000000e+01 1.689999999999999858e+01 6.639999999999999680e+00 1.698000000000000043e+01
3.250000000000000000e+01 9.334000000000000341e+01 1.100000000000000000e+01 1.707999999999999829e+01 6.599999999999999645e+00 1.707999999999999829e+01
3.434000000000000341e+01 9.400000000000000000e+01 1.100000000000000000e+01 1.814000000000000057e+01 7.000000000000000000e+00 1.785999999999999943e+01
3.692000000000000171e+01 9.898000000000000398e+01 1.100000000000000000e+01 1.900000000000000000e+01 7.519999999999999574e+00 1.835999999999999943e+01
3.843999999999999773e+01 1.044000000000000057e+02 1.148000000000000043e+01 1.900000000000000000e+01 8.000000000000000000e+00 1.900000000000000000e+01
3.852000000000000313e+01 1.048400000000000034e+02 1.200000000000000000e+01 1.900000000000000000e+01 8.000000000000000000e+00 1.900000000000000000e+01
3.952000000000000313e+01 1.045400000000000063e+02 1.200000000000000000e+01 1.900000000000000000e+01 8.000000000000000000e+00 1.900000000000000000e+01
3.920000000000000284e+01 1.025999999999999943e+02 1.138000000000000078e+01 1.880000000000000071e+01 8.000000000000000000e+00 1.880000000000000071e+01
3.778000000000000114e+01 9.626000000000000512e+01 1.100000000000000000e+01 1.800000000000000000e+01 8.000000000000000000e+00 1.796000000000000085e+01
3.646000000000000085e+01 9.062000000000000455e+01 1.100000000000000000e+01 1.800000000000000000e+01 8.000000000000000000e+00 1.671999999999999886e+01
3.511999999999999744e+01 8.292000000000000171e+01 1.100000000000000000e+01 1.751999999999999957e+01 8.000000000000000000e+00 1.519999999999999929e+01
3.314000000000000057e+01 7.635999999999999943e+01 1.100000000000000000e+01 1.610000000000000142e+01 8.000000000000000000e+00 1.400000000000000000e+01
3.060000000000000142e+01 7.018000000000000682e+01 1.100000000000000000e+01 1.541999999999999993e+01 7.139999999999999680e+00 1.230000000000000071e+01
2.826000000000000156e+01 6.200000000000000000e+01 1.038000000000000078e+01 1.440000000000000036e+01 7.500000000000000000e+00 1.125999999999999979e+01
2.517999999999999972e+01 5.160000000000000142e+01 1.000000000000000000e+01 1.400000000000000000e+01 7.040000000000000036e+00 1.000000000000000000e+01
2.473999999999999844e+01 4.970000000000000284e+01 1.000000000000000000e+01 1.438000000000000078e+01 7.000000000000000000e+00 1.001999999999999957e+01
2.460000000000000142e+01 5.574000000000000199e+01 1.000000000000000000e+01 1.422000000000000064e+01 7.000000000000000000e+00 1.080000000000000071e+01
2.400000000000000000e+01 5.920000000000000284e+01 1.000000000000000000e+01 1.400000000000000000e+01 7.000000000000000000e+00 1.091999999999999993e+01
2.437999999999999901e+01 6.229999999999999716e+01 1.000000000000000000e+01 1.400000000000000000e+01 7.480000000000000426e+00 1.135999999999999943e+01
2.666000000000000014e+01 7.142000000000000171e+01 1.000000000000000000e+01 1.400000000000000000e+01 7.360000000000000320e+00 1.288000000000000078e+01
2.833999999999999986e+01 8.001999999999999602e+01 1.000000000000000000e+01 1.400000000000000000e+01 7.000000000000000000e+00 1.400000000000000000e+01
2.921999999999999886e+01 8.351999999999999602e+01 1.000000000000000000e+01 1.400000000000000000e+01 7.000000000000000000e+00 1.425999999999999979e+01
3.000000000000000000e+01 8.493999999999999773e+01 1.000000000000000000e+01 1.498000000000000043e+01 7.000000000000000000e+00 1.500000000000000000e+01
3.051999999999999957e+01 8.681999999999999318e+01 1.000000000000000000e+01 1.443999999999999950e+01 7.000000000000000000e+00 1.450000000000000000e+01
3.103999999999999915e+01 8.856000000000000227e+01 1.000000000000000000e+01 1.500000000000000000e+01 7.000000000000000000e+00 1.500000000000000000e+01
3.196000000000000085e+01 9.314000000000000057e+01 1.000000000000000000e+01 1.451999999999999957e+01 7.000000000000000000e+00 1.543999999999999950e+01
3.166000000000000014e+01 9.565999999999999659e+01 1.000000000000000000e+01 1.490000000000000036e+01 7.000000000000000000e+00 1.538000000000000078e+01
3.256000000000000227e+01 9.435999999999999943e+01 1.051999999999999957e+01 1.500000000000000000e+01 7.000000000000000000e+00 1.530000000000000071e+01
3.293999999999999773e+01 9.465999999999999659e+01 1.100000000000000000e+01 1.553999999999999915e+01 7.639999999999999680e+00 1.556000000000000050e+01
3.221999999999999886e+01 9.343999999999999773e+01 1.100000000000000000e+01 1.516000000000000014e+01 8.000000000000000000e+00 1.490000000000000036e+01
3.128000000000000114e+01 8.920000000000000284e+01 1.100000000000000000e+01 1.600000000000000000e+01 8.000000000000000000e+00 1.400000000000000000e+01
3.176000000000000156e+01 8.884000000000000341e+01 1.100000000000000000e+01 1.600000000000000000e+01 8.000000000000000000e+00 1.448000000000000043e+01
3.200000000000000000e+01 8.984000000000000341e+01 1.100000000000000000e+01 1.509999999999999964e+01 8.000000000000000000e+00 1.482000000000000028e+01
3.217999999999999972e+01 8.956000000000000227e+01 1.100000000000000000e+01 1.600000000000000000e+01 8.000000000000000000e+00 1.500000000000000000e+01
3.189999999999999858e+01 8.995999999999999375e+01 1.100000000000000000e+01 1.600000000000000000e+01 8.000000000000000000e+00 1.500000000000000000e+01
3.314000000000000057e+01 8.785999999999999943e+01 1.122000000000000064e+01 1.600000000000000000e+01 8.000000000000000000e+00 1.448000000000000043e+01
3.506000000000000227e+01 8.476000000000000512e+01 1.200000000000000000e+01 1.600000000000000000e+01 8.000000000000000000e+00 1.493999999999999950e+01
3.500000000000000000e+01 8.818000000000000682e+01 1.200000000000000000e+01 1.667999999999999972e+01 8.000000000000000000e+00 1.483999999999999986e+01
3.514000000000000057e+01 9.037999999999999545e+01 1.209999999999999964e+01 1.657999999999999829e+01 8.220000000000000639e+00 1.509999999999999964e+01
3.117999999999999972e+01 1.000000000000000000e+01 9.009999999999999432e+01 1.324000000000000021e+01 1.259999999999999964e+01 1.960000000000000142e+01
3.160000000000000142e+01 1.000000000000000000e+01 8.742000000000000171e+01 1.456000000000000050e+01 1.398000000000000043e+01 2.000000000000000000e+01
3.225999999999999801e+01 1.064000000000000057e+01 8.934000000000000341e+01 1.610000000000000142e+01 1.519999999999999929e+01 2.000000000000000000e+01
3.357999999999999829e+01 1.077999999999999936e+01 9.181999999999999318e+01 1.700000000000000000e+01 1.700000000000000000e+01 1.946000000000000085e+01
3.485999999999999943e+01 1.167999999999999972e+01 8.850000000000000000e+01 1.876000000000000156e+01 1.796000000000000085e+01 2.076000000000000156e+01
3.403999999999999915e+01 1.200000000000000000e+01 9.092000000000000171e+01 2.350000000000000000e+01 1.900000000000000000e+01 2.262000000000000099e+01
3.396000000000000085e+01 1.200000000000000000e+01 9.309999999999999432e+01 2.400000000000000000e+01 1.900000000000000000e+01 2.294000000000000128e+01
3.596000000000000085e+01 1.246000000000000085e+01 9.392000000000000171e+01 2.537999999999999901e+01 1.900000000000000000e+01 2.328000000000000114e+01
3.561999999999999744e+01 1.241999999999999993e+01 9.600000000000000000e+01 2.621999999999999886e+01 1.916000000000000014e+01 2.400000000000000000e+01
3.557999999999999829e+01 1.266000000000000014e+01 9.754000000000000625e+01 2.700000000000000000e+01 1.939999999999999858e+01 2.435999999999999943e+01
3.420000000000000284e+01 1.300000000000000000e+01 9.571999999999999886e+01 2.833999999999999986e+01 1.957999999999999829e+01 2.439999999999999858e+01
3.389999999999999858e+01 1.266000000000000014e+01 9.557999999999999829e+01 2.800000000000000000e+01 1.869999999999999929e+01 2.498000000000000043e+01
3.402000000000000313e+01 1.200000000000000000e+01 9.193999999999999773e+01 2.800000000000000000e+01 1.776000000000000156e+01 2.423999999999999844e+01
3.421999999999999886e+01 1.158000000000000007e+01 8.942000000000000171e+01 2.794000000000000128e+01 1.522000000000000064e+01 2.417999999999999972e+01
3.347999999999999687e+01 1.046000000000000085e+01 8.576000000000000512e+01 2.744000000000000128e+01 1.461999999999999922e+01 2.333999999999999986e+01
3.285999999999999943e+01 1.000000000000000000e+01 8.157999999999999829e+01 2.417999999999999972e+01 1.400000000000000000e+01 2.126000000000000156e+01
3.200000000000000000e+01 1.000000000000000000e+01 7.800000000000000000e+01 2.400000000000000000e+01 1.400000000000000000e+01 2.100000000000000000e+01
2.928000000000000114e+01 9.980000000000000426e+00 7.623999999999999488e+01 2.260000000000000142e+01 1.372000000000000064e+01 2.132000000000000028e+01
2.866000000000000014e+01 9.980000000000000426e+00 7.478000000000000114e+01 2.166000000000000014e+01 1.400000000000000000e+01 2.100000000000000000e+01
2.732000000000000028e+01 1.000000000000000000e+01 7.395999999999999375e+01 2.000000000000000000e+01 1.382000000000000028e+01 2.055999999999999872e+01
2.607999999999999829e+01 1.000000000000000000e+01 7.415999999999999659e+01 1.855999999999999872e+01 1.238000000000000078e+01 2.000000000000000000e+01
2.564000000000000057e+01 1.000000000000000000e+01 6.920000000000000284e+01 1.783999999999999986e+01 1.291999999999999993e+01 1.923999999999999844e+01
2.751999999999999957e+01 1.000000000000000000e+01 6.940000000000000568e+01 1.769999999999999929e+01 1.300000000000000000e+01 1.930000000000000071e+01
2.614000000000000057e+01 1.000000000000000000e+01 7.184000000000000341e+01 1.773999999999999844e+01 1.388000000000000078e+01 1.900000000000000000e+01
2.651999999999999957e+01 1.000000000000000000e+01 7.090000000000000568e+01 1.700000000000000000e+01 1.488000000000000078e+01 1.900000000000000000e+01
2.600000000000000000e+01 1.000000000000000000e+01 7.100000000000000000e+01 1.700000000000000000e+01 1.511999999999999922e+01 1.900000000000000000e+01
2.689999999999999858e+01 1.066000000000000014e+01 6.912000000000000455e+01 1.700000000000000000e+01 1.500000000000000000e+01 1.976000000000000156e+01
2.676000000000000156e+01 1.032000000000000028e+01 6.726000000000000512e+01 1.700000000000000000e+01 1.496000000000000085e+01 1.873999999999999844e+01
2.698000000000000043e+01 1.000000000000000000e+01 6.397999999999999687e+01 1.698000000000000043e+01 1.400000000000000000e+01 1.800000000000000000e+01
2.673999999999999844e+01 1.000000000000000000e+01 5.953999999999999915e+01 1.700000000000000000e+01 1.400000000000000000e+01 1.800000000000000000e+01
2.666000000000000014e+01 1.000000000000000000e+01 5.621999999999999886e+01 1.733999999999999986e+01 1.400000000000000000e+01 1.803999999999999915e+01
2.683999999999999986e+01 1.000000000000000000e+01 5.556000000000000227e+01 1.700000000000000000e+01 1.316000000000000014e+01 1.800000000000000000e+01
2.407999999999999829e+01 9.220000000000000639e+00 5.389999999999999858e+01 1.591999999999999993e+01 1.300000000000000000e+01 1.800000000000000000e+01
2.357999999999999829e+01 9.000000000000000000e+00 4.842000000000000171e+01 1.580000000000000071e+01 1.169999999999999929e+01 1.764000000000000057e+01
2.300000000000000000e+01 8.980000000000000426e+00 4.921999999999999886e+01 1.553999999999999915e+01 1.100000000000000000e+01 1.683999999999999986e+01
2.303999999999999915e+01 9.000000000000000000e+00 4.874000000000000199e+01 1.500000000000000000e+01 1.040000000000000036e+01 1.666000000000000014e+01
2.271999999999999886e+01 8.199999999999999289e+00 5.017999999999999972e+01 1.459999999999999964e+01 1.041999999999999993e+01 1.603999999999999915e+01
2.400000000000000000e+01 8.000000000000000000e+00 5.000000000000000000e+01 1.456000000000000050e+01 1.009999999999999964e+01 1.538000000000000078e+01
2.400000000000000000e+01 8.000000000000000000e+00 4.870000000000000284e+01 1.459999999999999964e+01 1.061999999999999922e+01 1.509999999999999964e+01
2.433999999999999986e+01 8.000000000000000000e+00 4.875999999999999801e+01 1.461999999999999922e+01 1.058000000000000007e+01 1.559999999999999964e+01
7.559999999999999609e+00 3.000000000000000000e+00 4.000000000000000000e+00 5.000000000000000000e+00 0.000000000000000000e+00 1.000000000000000000e+00
7.379999999999999893e+00 2.279999999999999805e+00 4.000000000000000000e+00 4.900000000000000355e+00 0.000000000000000000e+00 1.000000000000000000e+00
7.660000000000000142e+00 2.000000000000000000e+00 4.000000000000000000e+00 4.000000000000000000e+00 0.000000000000000000e+00 1.000000000000000000e+00
7.400000000000000355e+00 2.000000000000000000e+00 4.000000000000000000e+00 3.120000000000000107e+00 0.000000000000000000e+00 1.000000000000000000e+00
9.000000000000000000e+00 2.000000000000000000e+00 4.000000000000000000e+00 3.040000000000000036e+00 0.000000000000000000e+00 1.000000000000000000e+00
8.960000000000000853e+00 2.000000000000000000e+00 4.000000000000000000e+00 3.819999999999999840e+00 0.000000000000000000e+00 1.000000000000000000e+00
8.699999999999999289e+00 2.000000000000000000e+00 4.000000000000000000e+00 3.000000000000000000e+00 0.000000000000000000e+00 1.000000000000000000e+00
9.000000000000000000e+00 2.000000000000000000e+00 4.000000000000000000e+00 3.759999999999999787e+00 0.000000000000000000e+00 1.000000000000000000e+00
9.000000000000000000e+00 2.000000000000000000e+00 4.000000000000000000e+00 4.000000000000000000e+00 0.000000000000000000e+00 1.000000000000000000e+00
9.000000000000000000e+00 2.000000000000000000e+00 4.000000000000000000e+00 4.000000000000000000e+00 0.000000000000000000e+00 1.000000000000000000e+00
8.919999999999999929e+00 2.000000000000000000e+00 4.000000000000000000e+00 4.000000000000000000e+00 0.000000000000000000e+00 1.000000000000000000e+00
8.000000000000000000e+00 2.000000000000000000e+00 4.000000000000000000e+00 4.000000000000000000e+00 0.000000000000000000e+00 1.000000000000000000e+00
8.640000000000000568e+00 2.000000000000000000e+00 4.000000000000000000e+00 4.000000000000000000e+00 0.000000000000000000e+00 1.000000000000000000e+00
9.060000000000000497e+00 2.160000000000000142e+00 4.000000000000000000e+00 4.160000000000000142e+00 1.000000000000000056e-01 1.000000000000000000e+00
1.200000000000000000e+01 3.000000000000000000e+00 4.000000000000000000e+00 5.000000000000000000e+00 1.000000000000000000e+00 1.000000000000000000e+00
1.200000000000000000e+01 3.000000000000000000e+00 4.000000000000000000e+00 5.000000000000000000e+00 1.000000000000000000e+00 1.000000000000000000e+00
1.309999999999999964e+01 3.000000000000000000e+00 4.000000000000000000e+00 5.000000000000000000e+00 1.000000000000000000e+00 1.000000000000000000e+00
1.500000000000000000e+01 3.000000000000000000e+00 4.000000000000000000e+00 5.000000000000000000e+00 1.659999999999999920e+00 1.000000000000000000e+00
1.577999999999999936e+01 3.819999999999999840e+00 6.839999999999999858e+00 5.000000000000000000e+00 2.000000000000000000e+00 1.760000000000000009e+00
1.723999999999999844e+01 6.040000000000000036e+00 1.022000000000000064e+01 5.000000000000000000e+00 2.120000000000000107e+00 4.379999999999999893e+00
1.950000000000000000e+01 8.800000000000000711e+00 1.430000000000000071e+01 5.459999999999999964e+00 3.000000000000000000e+00 6.860000000000000320e+00
2.101999999999999957e+01 1.033999999999999986e+01 1.600000000000000000e+01 6.000000000000000000e+00 3.020000000000000018e+00 7.259999999999999787e+00
2.376000000000000156e+01 1.327999999999999936e+01 1.600000000000000000e+01 7.339999999999999858e+00 4.059999999999999609e+00 8.000000000000000000e+00
2.455999999999999872e+01 1.923999999999999844e+01 1.600000000000000000e+01 8.980000000000000426e+00 5.000000000000000000e+00 8.779999999999999361e+00
2.762000000000000099e+01 4.021999999999999886e+01 1.687999999999999901e+01 9.640000000000000568e+00 5.000000000000000000e+00 1.327999999999999936e+01
3.521999999999999886e+01 7.242000000000000171e+01 1.700000000000000000e+01 1.135999999999999943e+01 5.500000000000000000e+00 1.773999999999999844e+01
4.392000000000000171e+01 9.950000000000000000e+01 1.764000000000000057e+01 1.408000000000000007e+01 6.639999999999999680e+00 2.130000000000000071e+01
4.879999999999999716e+01 1.141200000000000045e+02 1.950000000000000000e+01 1.950000000000000000e+01 7.940000000000000391e+00 2.267999999999999972e+01
5.296000000000000085e+01 1.254599999999999937e+02 1.950000000000000000e+01 2.321999999999999886e+01 9.279999999999999361e+00 2.400000000000000000e+01
5.653999999999999915e+01 1.411599999999999966e+02 1.900000000000000000e+01 2.603999999999999915e+01 1.101999999999999957e+01 2.730000000000000071e+01
5.885999999999999943e+01 1.509199999999999875e+02 1.712000000000000099e+01 2.896000000000000085e+01 1.225999999999999979e+01 2.939999999999999858e+01
6.406000000000000227e+01 1.604399999999999977e+02 1.700000000000000000e+01 3.037999999999999901e+01 1.303999999999999915e+01 3.117999999999999972e+01
6.400000000000000000e+01 1.650800000000000125e+02 1.755999999999999872e+01 3.100000000000000000e+01 1.322000000000000064e+01 3.200000000000000000e+01
6.493999999999999773e+01 1.660000000000000000e+02 1.800000000000000000e+01 3.101999999999999957e+01 1.400000000000000000e+01 3.200000000000000000e+01
6.360000000000000142e+01 1.630600000000000023e+02 1.800000000000000000e+01 3.100000000000000000e+01 1.400000000000000000e+01 3.080000000000000071e+01
5.965999999999999659e+01 1.516200000000000045e+02 1.721999999999999886e+01 3.073999999999999844e+01 1.400000000000000000e+01 2.844000000000000128e+01
5.320000000000000284e+01 1.363199999999999932e+02 1.669999999999999929e+01 2.980000000000000071e+01 1.325999999999999979e+01 2.583999999999999986e+01
4.825999999999999801e+01 1.244399999999999977e+02 1.453999999999999915e+01 2.633999999999999986e+01 1.248000000000000043e+01 2.473999999999999844e+01
4.334000000000000341e+01 1.126400000000000006e+02 1.317999999999999972e+01 2.282000000000000028e+01 1.114000000000000057e+01 2.321999999999999886e+01
3.774000000000000199e+01 9.193999999999999773e+01 1.117999999999999972e+01 1.987999999999999901e+01 9.539999999999999147e+00 1.914000000000000057e+01
