3.000000000000000000e+00 2.000000000000000000e+00 1.350000000000000000e+01 7.000000000000000000e+00 1.000000000000000000e+00 4.000000000000000000e+00
3.000000000000000000e+00 2.000000000000000000e+00 1.300000000000000000e+01 7.000000000000000000e+00 1.000000000000000000e+00 4.000000000000000000e+00
3.000000000000000000e+00 2.000000000000000000e+00 1.322000000000000064e+01 6.860000000000000320e+00 1.000000000000000000e+00 4.000000000000000000e+00
3.000000000000000000e+00 2.000000000000000000e+00 1.300000000000000000e+01 6.240000000000000213e+00 1.000000000000000000e+00 3.939999999999999947e+00
3.000000000000000000e+00 2.000000000000000000e+00 1.300000000000000000e+01 6.000000000000000000e+00 1.000000000000000000e+00 3.000000000000000000e+00
3.000000000000000000e+00 2.000000000000000000e+00 1.300000000000000000e+01 6.000000000000000000e+00 1.000000000000000000e+00 3.000000000000000000e+00
3.000000000000000000e+00 2.000000000000000000e+00 1.388000000000000078e+01 6.000000000000000000e+00 1.000000000000000000e+00 3.000000000000000000e+00
3.000000000000000000e+00 2.000000000000000000e+00 1.325999999999999979e+01 6.000000000000000000e+00 1.000000000000000000e+00 3.000000000000000000e+00
3.000000000000000000e+00 2.000000000000000000e+00 1.300000000000000000e+01 6.379999999999999893e+00 1.000000000000000000e+00 3.000000000000000000e+00
3.000000000000000000e+00 2.000000000000000000e+00 1.300000000000000000e+01 7.000000000000000000e+00 1.000000000000000000e+00 3.000000000000000000e+00
3.000000000000000000e+00 2.000000000000000000e+00 1.248000000000000043e+01 7.000000000000000000e+00 1.000000000000000000e+00 3.000000000000000000e+00
3.000000000000000000e+00 2.000000000000000000e+00 1.227999999999999936e+01 7.000000000000000000e+00 1.000000000000000000e+00 3.959999999999999964e+00
3.000000000000000000e+00 2.000000000000000000e+00 1.201999999999999957e+01 7.000000000000000000e+00 1.000000000000000000e+00 4.000000000000000000e+00
3.000000000000000000e+00 2.000000000000000000e+00 1.200000000000000000e+01 7.000000000000000000e+00 1.000000000000000000e+00 4.000000000000000000e+00
3.000000000000000000e+00 2.000000000000000000e+00 1.200000000000000000e+01 7.000000000000000000e+00 1.000000000000000000e+00 4.000000000000000000e+00
3.000000000000000000e+00 2.000000000000000000e+00 1.248000000000000043e+01 7.000000000000000000e+00 1.000000000000000000e+00 4.000000000000000000e+00
3.000000000000000000e+00 2.000000000000000000e+00 1.200000000000000000e+01 7.000000000000000000e+00 1.000000000000000000e+00 4.000000000000000000e+00
3.000000000000000000e+00 2.000000000000000000e+00 1.200000000000000000e+01 7.000000000000000000e+00 1.000000000000000000e+00 4.000000000000000000e+00
3.000000000000000000e+00 2.000000000000000000e+00 1.232000000000000028e+01 7.000000000000000000e+00 1.000000000000000000e+00 4.000000000000000000e+00
3.000000000000000000e+00 2.000000000000000000e+00 1.277999999999999936e+01 6.820000000000000284e+00 1.000000000000000000e+00 3.299999999999999822e+00
3.000000000000000000e+00 2.000000000000000000e+00 1.200000000000000000e+01 6.000000000000000000e+00 1.000000000000000000e+00 3.459999999999999964e+00
3.000000000000000000e+00 2.000000000000000000e+00 1.222000000000000064e+01 6.900000000000000355e+00 1.000000000000000000e+00 3.000000000000000000e+00
3.000000000000000000e+00 2.000000000000000000e+00 1.277999999999999936e+01 7.000000000000000000e+00 1.000000000000000000e+00 3.379999999999999893e+00
3.000000000000000000e+00 2.359999999999999876e+00 1.261999999999999922e+01 7.000000000000000000e+00 1.000000000000000000e+00 4.000000000000000000e+00
3.000000000000000000e+00 2.459999999999999964e+00 1.398000000000000043e+01 7.000000000000000000e+00 1.000000000000000000e+00 4.000000000000000000e+00
3.000000000000000000e+00 3.000000000000000000e+00 1.400000000000000000e+01 7.519999999999999574e+00 1.000000000000000000e+00 4.000000000000000000e+00
3.000000000000000000e+00 3.000000000000000000e+00 1.400000000000000000e+01 8.000000000000000000e+00 1.000000000000000000e+00 4.000000000000000000e+00
3.000000000000000000e+00 3.000000000000000000e+00 1.400000000000000000e+01 8.000000000000000000e+00 1.000000000000000000e+00 4.000000000000000000e+00
3.000000000000000000e+00 3.000000000000000000e+00 1.424000000000000021e+01 8.000000000000000000e+00 1.000000000000000000e+00 4.000000000000000000e+00
3.339999999999999858e+00 3.000000000000000000e+00 1.400000000000000000e+01 8.000000000000000000e+00 1.000000000000000000e+00 4.000000000000000000e+00
3.660000000000000142e+00 3.000000000000000000e+00 1.400000000000000000e+01 8.000000000000000000e+00 1.000000000000000000e+00 4.000000000000000000e+00
3.979999999999999982e+00 3.000000000000000000e+00 1.400000000000000000e+01 8.000000000000000000e+00 1.000000000000000000e+00 4.000000000000000000e+00
3.620000000000000107e+00 3.000000000000000000e+00 1.400000000000000000e+01 8.000000000000000000e+00 1.000000000000000000e+00 4.000000000000000000e+00
4.000000000000000000e+00 3.000000000000000000e+00 1.359999999999999964e+01 8.000000000000000000e+00 1.000000000000000000e+00 4.000000000000000000e+00
4.000000000000000000e+00 3.000000000000000000e+00 1.314000000000000057e+01 8.000000000000000000e+00 1.000000000000000000e+00 4.000000000000000000e+00
3.500000000000000000e+00 3.000000000000000000e+00 1.309999999999999964e+01 8.000000000000000000e+00 1.000000000000000000e+00 4.000000000000000000e+00
3.879999999999999893e+00 3.000000000000000000e+00 1.353999999999999915e+01 8.000000000000000000e+00 1.000000000000000000e+00 4.000000000000000000e+00
3.939999999999999947e+00 3.000000000000000000e+00 1.327999999999999936e+01 7.580000000000000071e+00 1.000000000000000000e+00 4.000000000000000000e+00
4.000000000000000000e+00 3.000000000000000000e+00 1.300000000000000000e+01 7.040000000000000036e+00 1.000000000000000000e+00 4.000000000000000000e+00
4.000000000000000000e+00 3.000000000000000000e+00 1.224000000000000021e+01 7.519999999999999574e+00 1.199999999999999956e+00 4.000000000000000000e+00
9.000000000000000000e+00 6.000000000000000000e+00 1.500000000000000000e+01 1.700000000000000000e+01 6.860000000000000320e+00 2.130000000000000071e+01
9.000000000000000000e+00 5.160000000000000142e+00 1.498000000000000043e+01 1.689999999999999858e+01 6.040000000000000036e+00 2.105999999999999872e+01
8.539999999999999147e+00 5.000000000000000000e+00 1.493999999999999950e+01 1.600000000000000000e+01 6.000000000000000000e+00 2.100000000000000000e+01
8.000000000000000000e+00 5.000000000000000000e+00 1.456000000000000050e+01 1.577999999999999936e+01 6.000000000000000000e+00 2.100000000000000000e+01
7.099999999999999645e+00 5.000000000000000000e+00 1.503999999999999915e+01 1.477999999999999936e+01 6.000000000000000000e+00 2.100000000000000000e+01
7.000000000000000000e+00 5.000000000000000000e+00 1.600000000000000000e+01 1.269999999999999929e+01 6.000000000000000000e+00 2.026000000000000156e+01
7.000000000000000000e+00 5.000000000000000000e+00 1.524000000000000021e+01 1.200000000000000000e+01 6.000000000000000000e+00 2.012000000000000099e+01
7.000000000000000000e+00 5.000000000000000000e+00 1.500000000000000000e+01 1.200000000000000000e+01 6.000000000000000000e+00 2.000000000000000000e+01
6.320000000000000284e+00 5.000000000000000000e+00 1.448000000000000043e+01 1.200000000000000000e+01 6.000000000000000000e+00 2.001999999999999957e+01
6.000000000000000000e+00 5.000000000000000000e+00 1.451999999999999957e+01 1.200000000000000000e+01 6.339999999999999858e+00 2.000000000000000000e+01
6.000000000000000000e+00 5.000000000000000000e+00 1.500000000000000000e+01 1.282000000000000028e+01 7.000000000000000000e+00 2.000000000000000000e+01
6.000000000000000000e+00 5.000000000000000000e+00 1.500000000000000000e+01 1.253999999999999915e+01 6.299999999999999822e+00 2.017999999999999972e+01
6.000000000000000000e+00 5.000000000000000000e+00 1.509999999999999964e+01 1.300000000000000000e+01 6.080000000000000071e+00 2.069999999999999929e+01
6.000000000000000000e+00 5.000000000000000000e+00 1.511999999999999922e+01 1.351999999999999957e+01 6.059999999999999609e+00 2.100000000000000000e+01
6.000000000000000000e+00 5.000000000000000000e+00 1.453999999999999915e+01 1.400000000000000000e+01 6.000000000000000000e+00 2.003999999999999915e+01
6.000000000000000000e+00 5.000000000000000000e+00 1.409999999999999964e+01 1.400000000000000000e+01 6.000000000000000000e+00 2.000000000000000000e+01
6.000000000000000000e+00 5.000000000000000000e+00 1.511999999999999922e+01 1.350000000000000000e+01 6.000000000000000000e+00 2.087999999999999901e+01
6.000000000000000000e+00 5.000000000000000000e+00 1.533999999999999986e+01 1.361999999999999922e+01 6.000000000000000000e+00 2.080000000000000071e+01
6.639999999999999680e+00 5.000000000000000000e+00 1.509999999999999964e+01 1.350000000000000000e+01 6.259999999999999787e+00 2.098000000000000043e+01
6.919999999999999929e+00 5.000000000000000000e+00 1.569999999999999929e+01 1.322000000000000064e+01 6.000000000000000000e+00 2.085999999999999943e+01
6.540000000000000036e+00 5.000000000000000000e+00 1.551999999999999957e+01 1.300000000000000000e+01 6.000000000000000000e+00 2.066000000000000014e+01
6.820000000000000284e+00 5.000000000000000000e+00 1.600000000000000000e+01 1.282000000000000028e+01 6.000000000000000000e+00 2.092000000000000171e+01
7.000000000000000000e+00 5.000000000000000000e+00 1.564000000000000057e+01 1.200000000000000000e+01 6.000000000000000000e+00 2.000000000000000000e+01
7.059999999999999609e+00 5.000000000000000000e+00 1.500000000000000000e+01 1.180000000000000071e+01 6.000000000000000000e+00 2.000000000000000000e+01
8.000000000000000000e+00 5.000000000000000000e+00 1.500000000000000000e+01 1.100000000000000000e+01 6.000000000000000000e+00 2.000000000000000000e+01
8.000000000000000000e+00 4.940000000000000391e+00 1.403999999999999915e+01 1.100000000000000000e+01 6.000000000000000000e+00 1.994000000000000128e+01
8.000000000000000000e+00 4.000000000000000000e+00 1.311999999999999922e+01 1.127999999999999936e+01 6.480000000000000426e+00 1.900000000000000000e+01
8.060000000000000497e+00 4.000000000000000000e+00 1.300000000000000000e+01 1.130000000000000071e+01 6.919999999999999929e+00 1.900000000000000000e+01
8.320000000000000284e+00 4.000000000000000000e+00 1.346000000000000085e+01 1.122000000000000064e+01 6.080000000000000071e+00 1.900000000000000000e+01
9.000000000000000000e+00 4.000000000000000000e+00 1.300000000000000000e+01 1.100000000000000000e+01 6.000000000000000000e+00 1.950000000000000000e+01
9.000000000000000000e+00 4.000000000000000000e+00 1.300000000000000000e+01 1.166000000000000014e+01 6.000000000000000000e+00 2.001999999999999957e+01
9.000000000000000000e+00 4.000000000000000000e+00 1.203999999999999915e+01 1.200000000000000000e+01 6.000000000000000000e+00 2.001999999999999957e+01
8.220000000000000639e+00 4.219999999999999751e+00 1.200000000000000000e+01 1.283999999999999986e+01 6.139999999999999680e+00 2.085999999999999943e+01
8.000000000000000000e+00 5.000000000000000000e+00 1.235999999999999943e+01 1.233999999999999986e+01 6.000000000000000000e+00 2.096000000000000085e+01
7.759999999999999787e+00 5.000000000000000000e+00 1.300000000000000000e+01 1.200000000000000000e+01 6.019999999999999574e+00 2.100000000000000000e+01
7.000000000000000000e+00 5.000000000000000000e+00 1.300000000000000000e+01 1.227999999999999936e+01 6.000000000000000000e+00 2.100000000000000000e+01
7.000000000000000000e+00 5.000000000000000000e+00 1.225999999999999979e+01 1.269999999999999929e+01 6.000000000000000000e+00 2.100000000000000000e+01
7.000000000000000000e+00 5.000000000000000000e+00 1.200000000000000000e+01 1.224000000000000021e+01 6.000000000000000000e+00 2.100000000000000000e+01
7.000000000000000000e+00 5.000000000000000000e+00 1.167999999999999972e+01 1.300000000000000000e+01 6.000000000000000000e+00 2.064000000000000057e+01
6.860000000000000320e+00 5.000000000000000000e+00 1.166000000000000014e+01 1.300000000000000000e+01 6.000000000000000000e+00 1.982000000000000028e+01
2.200000000000000000e+01 1.830000000000000071e+01 1.300000000000000000e+01 1.885999999999999943e+01 9.060000000000000497e+00 1.700000000000000000e+01
2.382000000000000028e+01 1.876000000000000156e+01 1.303999999999999915e+01 1.948000000000000043e+01 9.859999999999999432e+00 1.750000000000000000e+01
2.712000000000000099e+01 2.205999999999999872e+01 1.358000000000000007e+01 1.912000000000000099e+01 1.172000000000000064e+01 1.767999999999999972e+01
3.107999999999999829e+01 2.530000000000000071e+01 1.737999999999999901e+01 2.878000000000000114e+01 1.948000000000000043e+01 1.755999999999999872e+01
3.224000000000000199e+01 2.685999999999999943e+01 2.666000000000000014e+01 5.065999999999999659e+01 2.983999999999999986e+01 1.800000000000000000e+01
3.450000000000000000e+01 2.819999999999999929e+01 2.776000000000000156e+01 5.493999999999999773e+01 3.365999999999999659e+01 1.885999999999999943e+01
3.646000000000000085e+01 2.953999999999999915e+01 2.835999999999999943e+01 5.921999999999999886e+01 3.578000000000000114e+01 1.916000000000000014e+01
3.700000000000000000e+01 3.211999999999999744e+01 2.905999999999999872e+01 6.100000000000000000e+01 3.678000000000000114e+01 1.905999999999999872e+01
3.824000000000000199e+01 3.315999999999999659e+01 3.021999999999999886e+01 6.153999999999999915e+01 3.761999999999999744e+01 1.939999999999999858e+01
4.011999999999999744e+01 3.421999999999999886e+01 3.100000000000000000e+01 6.275999999999999801e+01 3.821999999999999886e+01 1.976000000000000156e+01
4.100000000000000000e+01 3.500000000000000000e+01 3.126000000000000156e+01 6.346000000000000085e+01 3.960000000000000142e+01 2.000000000000000000e+01
3.957999999999999829e+01 3.435999999999999943e+01 3.112000000000000099e+01 6.598000000000000398e+01 4.139999999999999858e+01 2.073999999999999844e+01
3.693999999999999773e+01 3.211999999999999744e+01 3.100000000000000000e+01 6.614000000000000057e+01 4.192000000000000171e+01 2.100000000000000000e+01
3.393999999999999773e+01 2.903999999999999915e+01 2.960000000000000142e+01 6.243999999999999773e+01 3.907999999999999829e+01 2.057999999999999829e+01
3.288000000000000256e+01 2.800000000000000000e+01 2.250000000000000000e+01 4.857999999999999829e+01 3.303999999999999915e+01 2.085999999999999943e+01
3.100000000000000000e+01 2.696000000000000085e+01 2.283999999999999986e+01 4.678000000000000114e+01 3.046000000000000085e+01 2.000000000000000000e+01
2.889999999999999858e+01 2.623999999999999844e+01 2.273999999999999844e+01 4.324000000000000199e+01 2.898000000000000043e+01 1.960000000000000142e+01
2.812000000000000099e+01 2.344000000000000128e+01 2.230000000000000071e+01 4.200000000000000000e+01 2.850000000000000000e+01 1.900000000000000000e+01
2.682000000000000028e+01 2.253999999999999915e+01 2.226000000000000156e+01 4.147999999999999687e+01 2.780000000000000071e+01 1.830000000000000071e+01
2.555999999999999872e+01 2.164000000000000057e+01 2.200000000000000000e+01 4.025999999999999801e+01 2.712000000000000099e+01 1.800000000000000000e+01
2.578000000000000114e+01 2.532000000000000028e+01 2.200000000000000000e+01 3.943999999999999773e+01 2.623999999999999844e+01 1.800000000000000000e+01
2.771999999999999886e+01 2.919999999999999929e+01 2.271999999999999886e+01 3.446000000000000085e+01 2.369999999999999929e+01 1.705999999999999872e+01
2.878000000000000114e+01 3.000000000000000000e+01 2.285999999999999943e+01 3.388000000000000256e+01 2.300000000000000000e+01 1.701999999999999957e+01
2.962000000000000099e+01 3.039999999999999858e+01 2.339999999999999858e+01 3.284000000000000341e+01 2.250000000000000000e+01 1.830000000000000071e+01
2.900000000000000000e+01 3.000000000000000000e+01 2.250000000000000000e+01 3.180000000000000071e+01 2.176000000000000156e+01 1.867999999999999972e+01
2.900000000000000000e+01 3.053999999999999915e+01 2.237999999999999901e+01 2.810000000000000142e+01 2.016000000000000014e+01 1.866000000000000014e+01
2.960000000000000142e+01 3.246000000000000085e+01 2.223999999999999844e+01 2.533999999999999986e+01 1.998000000000000043e+01 1.948000000000000043e+01
3.078000000000000114e+01 3.325999999999999801e+01 2.276000000000000156e+01 2.400000000000000000e+01 1.900000000000000000e+01 1.998000000000000043e+01
3.200000000000000000e+01 3.388000000000000256e+01 2.262000000000000099e+01 2.426000000000000156e+01 1.900000000000000000e+01 2.000000000000000000e+01
3.200000000000000000e+01 3.438000000000000256e+01 2.300000000000000000e+01 2.432000000000000028e+01 1.848000000000000043e+01 2.067999999999999972e+01
3.232000000000000028e+01 3.289999999999999858e+01 2.312000000000000099e+01 2.471999999999999886e+01 1.805999999999999872e+01 2.200000000000000000e+01
3.217999999999999972e+01 3.139999999999999858e+01 2.426000000000000156e+01 2.617999999999999972e+01 1.810000000000000142e+01 2.221999999999999886e+01
3.146000000000000085e+01 3.196000000000000085e+01 2.626000000000000156e+01 2.764000000000000057e+01 1.800000000000000000e+01 2.200000000000000000e+01
3.100000000000000000e+01 3.200000000000000000e+01 2.669999999999999929e+01 2.933999999999999986e+01 1.780000000000000071e+01 2.166000000000000014e+01
3.026000000000000156e+01 3.200000000000000000e+01 2.689999999999999858e+01 2.942000000000000171e+01 1.785999999999999943e+01 2.100000000000000000e+01
2.950000000000000000e+01 3.078000000000000114e+01 2.571999999999999886e+01 2.892000000000000171e+01 1.685999999999999943e+01 2.035999999999999943e+01
2.796000000000000085e+01 2.755999999999999872e+01 2.500000000000000000e+01 2.800000000000000000e+01 1.600000000000000000e+01 1.921999999999999886e+01
2.517999999999999972e+01 2.573999999999999844e+01 2.378000000000000114e+01 2.757999999999999829e+01 1.600000000000000000e+01 1.844000000000000128e+01
2.235999999999999943e+01 2.421999999999999886e+01 2.296000000000000085e+01 2.671999999999999886e+01 1.517999999999999972e+01 1.750000000000000000e+01
2.042000000000000171e+01 2.144000000000000128e+01 2.139999999999999858e+01 2.600000000000000000e+01 1.500000000000000000e+01 1.600000000000000000e+01
6.000000000000000000e+00 4.000000000000000000e+00 1.472000000000000064e+01 7.419999999999999929e+00 2.000000000000000000e+00 4.339999999999999858e+00
6.000000000000000000e+00 4.000000000000000000e+00 1.500000000000000000e+01 8.000000000000000000e+00 2.000000000000000000e+00 4.000000000000000000e+00
6.299999999999999822e+00 4.000000000000000000e+00 1.574000000000000021e+01 8.000000000000000000e+00 2.000000000000000000e+00 4.000000000000000000e+00
7.000000000000000000e+00 4.940000000000000391e+00 1.600000000000000000e+01 8.980000000000000426e+00 2.000000000000000000e+00 4.000000000000000000e+00
7.000000000000000000e+00 5.000000000000000000e+00 1.671999999999999886e+01 9.000000000000000000e+00 2.799999999999999822e+00 4.000000000000000000e+00
7.000000000000000000e+00 5.000000000000000000e+00 1.687999999999999901e+01 9.000000000000000000e+00 3.000000000000000000e+00 4.000000000000000000e+00
7.059999999999999609e+00 5.000000000000000000e+00 1.700000000000000000e+01 9.099999999999999645e+00 3.000000000000000000e+00 4.000000000000000000e+00
7.000000000000000000e+00 5.000000000000000000e+00 1.750000000000000000e+01 9.000000000000000000e+00 3.000000000000000000e+00 4.000000000000000000e+00
6.580000000000000071e+00 4.500000000000000000e+00 1.726000000000000156e+01 9.060000000000000497e+00 3.000000000000000000e+00 4.000000000000000000e+00
6.000000000000000000e+00 4.000000000000000000e+00 1.796000000000000085e+01 9.519999999999999574e+00 3.000000000000000000e+00 4.000000000000000000e+00
6.000000000000000000e+00 4.000000000000000000e+00 1.730000000000000071e+01 9.000000000000000000e+00 3.000000000000000000e+00 3.540000000000000036e+00
6.000000000000000000e+00 4.000000000000000000e+00 1.700000000000000000e+01 9.000000000000000000e+00 3.000000000000000000e+00 3.000000000000000000e+00
5.959999999999999964e+00 4.000000000000000000e+00 1.667999999999999972e+01 9.000000000000000000e+00 3.000000000000000000e+00 3.000000000000000000e+00
5.000000000000000000e+00 4.000000000000000000e+00 1.683999999999999986e+01 8.220000000000000639e+00 3.000000000000000000e+00 3.080000000000000071e+00
5.000000000000000000e+00 4.000000000000000000e+00 1.564000000000000057e+01 8.300000000000000711e+00 2.879999999999999893e+00 3.299999999999999822e+00
5.000000000000000000e+00 4.000000000000000000e+00 1.500000000000000000e+01 8.000000000000000000e+00 2.000000000000000000e+00 3.000000000000000000e+00
4.320000000000000284e+00 4.000000000000000000e+00 1.500000000000000000e+01 8.000000000000000000e+00 2.000000000000000000e+00 3.000000000000000000e+00
4.000000000000000000e+00 3.939999999999999947e+00 1.366000000000000014e+01 8.000000000000000000e+00 2.000000000000000000e+00 3.000000000000000000e+00
4.000000000000000000e+00 3.000000000000000000e+00 1.296000000000000085e+01 7.620000000000000107e+00 2.000000000000000000e+00 3.000000000000000000e+00
4.000000000000000000e+00 3.000000000000000000e+00 1.211999999999999922e+01 8.000000000000000000e+00 2.020000000000000018e+00 3.279999999999999805e+00
4.480000000000000426e+00 3.000000000000000000e+00 1.291999999999999993e+01 8.000000000000000000e+00 3.000000000000000000e+00 4.000000000000000000e+00
5.000000000000000000e+00 3.000000000000000000e+00 1.290000000000000036e+01 8.000000000000000000e+00 3.000000000000000000e+00 4.000000000000000000e+00
4.200000000000000178e+00 3.000000000000000000e+00 1.300000000000000000e+01 8.000000000000000000e+00 3.000000000000000000e+00 4.000000000000000000e+00
4.000000000000000000e+00 3.000000000000000000e+00 1.283999999999999986e+01 8.000000000000000000e+00 3.000000000000000000e+00 3.439999999999999947e+00
4.000000000000000000e+00 3.000000000000000000e+00 1.300000000000000000e+01 8.000000000000000000e+00 3.000000000000000000e+00 3.000000000000000000e+00
4.000000000000000000e+00 3.000000000000000000e+00 1.300000000000000000e+01 8.000000000000000000e+00 3.000000000000000000e+00 3.259999999999999787e+00
4.000000000000000000e+00 3.000000000000000000e+00 1.388000000000000078e+01 8.000000000000000000e+00 3.000000000000000000e+00 3.379999999999999893e+00
4.000000000000000000e+00 3.000000000000000000e+00 1.400000000000000000e+01 7.980000000000000426e+00 3.000000000000000000e+00 4.000000000000000000e+00
4.000000000000000000e+00 3.000000000000000000e+00 1.400000000000000000e+01 7.379999999999999893e+00 3.000000000000000000e+00 4.000000000000000000e+00
4.000000000000000000e+00 3.000000000000000000e+00 1.377999999999999936e+01 7.000000000000000000e+00 2.939999999999999947e+00 4.000000000000000000e+00
4.000000000000000000e+00 3.000000000000000000e+00 1.300000000000000000e+01 7.000000000000000000e+00 2.000000000000000000e+00 4.000000000000000000e+00
4.000000000000000000e+00 3.000000000000000000e+00 1.300000000000000000e+01 7.000000000000000000e+00 2.000000000000000000e+00 4.000000000000000000e+00
4.000000000000000000e+00 3.000000000000000000e+00 1.308000000000000007e+01 7.000000000000000000e+00 2.000000000000000000e+00 4.000000000000000000e+00
4.000000000000000000e+00 3.000000000000000000e+00 1.391999999999999993e+01 7.000000000000000000e+00 2.000000000000000000e+00 4.000000000000000000e+00
4.000000000000000000e+00 3.000000000000000000e+00 1.400000000000000000e+01 7.000000000000000000e+00 2.000000000000000000e+00 3.879999999999999893e+00
4.000000000000000000e+00 3.000000000000000000e+00 1.400000000000000000e+01 7.000000000000000000e+00 1.520000000000000018e+00 4.000000000000000000e+00
4.000000000000000000e+00 3.000000000000000000e+00 1.377999999999999936e+01 7.000000000000000000e+00 1.000000000000000000e+00 4.000000000000000000e+00
4.000000000000000000e+00 3.000000000000000000e+00 1.351999999999999957e+01 7.519999999999999574e+00 1.260000000000000009e+00 3.839999999999999858e+00
4.000000000000000000e+00 3.000000000000000000e+00 1.400000000000000000e+01 8.000000000000000000e+00 1.000000000000000000e+00 3.180000000000000160e+00
4.000000000000000000e+00 3.000000000000000000e+00 1.432000000000000028e+01 8.300000000000000711e+00 1.679999999999999938e+00 3.439999999999999947e+00
1.000000000000000000e+00 2.000000000000000000e+00 1.109999999999999964e+01 7.839999999999999858e+00 0.000000000000000000e+00 1.060000000000000053e+00
1.000000000000000000e+00 2.000000000000000000e+00 1.100000000000000000e+01 9.779999999999999361e+00 0.000000000000000000e+00 2.000000000000000000e+00
1.000000000000000000e+00 2.000000000000000000e+00 1.100000000000000000e+01 1.000000000000000000e+01 0.000000000000000000e+00 2.000000000000000000e+00
1.000000000000000000e+00 2.000000000000000000e+00 1.100000000000000000e+01 1.098000000000000043e+01 0.000000000000000000e+00 2.000000000000000000e+00
1.000000000000000000e+00 2.000000000000000000e+00 1.100000000000000000e+01 1.100000000000000000e+01 0.000000000000000000e+00 2.000000000000000000e+00
1.000000000000000000e+00 2.000000000000000000e+00 1.100000000000000000e+01 1.100000000000000000e+01 0.000000000000000000e+00 2.000000000000000000e+00
1.500000000000000000e+00 2.180000000000000160e+00 1.100000000000000000e+01 1.232000000000000028e+01 0.000000000000000000e+00 2.000000000000000000e+00
2.000000000000000000e+00 3.000000000000000000e+00 1.100000000000000000e+01 1.351999999999999957e+01 9.200000000000000400e-01 3.799999999999999822e+00
2.000000000000000000e+00 3.000000000000000000e+00 1.159999999999999964e+01 1.400000000000000000e+01 1.000000000000000000e+00 4.000000000000000000e+00
2.540000000000000036e+00 3.000000000000000000e+00 1.200000000000000000e+01 1.400000000000000000e+01 1.659999999999999920e+00 4.000000000000000000e+00
3.000000000000000000e+00 3.000000000000000000e+00 1.200000000000000000e+01 1.401999999999999957e+01 2.000000000000000000e+00 4.200000000000000178e+00
3.000000000000000000e+00 3.000000000000000000e+00 1.200000000000000000e+01 1.450000000000000000e+01 2.000000000000000000e+00 5.000000000000000000e+00
3.000000000000000000e+00 3.000000000000000000e+00 1.291999999999999993e+01 1.506000000000000050e+01 2.000000000000000000e+00 5.000000000000000000e+00
3.500000000000000000e+00 3.000000000000000000e+00 1.500000000000000000e+01 1.628000000000000114e+01 2.000000000000000000e+00 5.000000000000000000e+00
3.939999999999999947e+00 3.000000000000000000e+00 1.514000000000000057e+01 1.700000000000000000e+01 2.000000000000000000e+00 5.000000000000000000e+00
4.000000000000000000e+00 3.000000000000000000e+00 1.662000000000000099e+01 1.771999999999999886e+01 2.000000000000000000e+00 5.580000000000000071e+00
4.000000000000000000e+00 3.000000000000000000e+00 1.700000000000000000e+01 2.083999999999999986e+01 2.000000000000000000e+00 6.000000000000000000e+00
4.000000000000000000e+00 3.000000000000000000e+00 1.700000000000000000e+01 2.278000000000000114e+01 2.000000000000000000e+00 6.000000000000000000e+00
4.000000000000000000e+00 3.000000000000000000e+00 1.700000000000000000e+01 2.339999999999999858e+01 2.000000000000000000e+00 6.000000000000000000e+00
4.000000000000000000e+00 3.000000000000000000e+00 1.746000000000000085e+01 2.450000000000000000e+01 2.000000000000000000e+00 6.000000000000000000e+00
4.000000000000000000e+00 3.000000000000000000e+00 1.701999999999999957e+01 2.496000000000000085e+01 2.000000000000000000e+00 6.000000000000000000e+00
4.000000000000000000e+00 3.000000000000000000e+00 1.723999999999999844e+01 2.455999999999999872e+01 2.000000000000000000e+00 6.000000000000000000e+00
4.000000000000000000e+00 3.000000000000000000e+00 1.700000000000000000e+01 2.542000000000000171e+01 2.140000000000000124e+00 6.000000000000000000e+00
4.000000000000000000e+00 3.000000000000000000e+00 1.580000000000000071e+01 2.500000000000000000e+01 2.220000000000000195e+00 6.000000000000000000e+00
4.000000000000000000e+00 3.000000000000000000e+00 1.600000000000000000e+01 2.500000000000000000e+01 2.620000000000000107e+00 6.000000000000000000e+00
4.000000000000000000e+00 3.000000000000000000e+00 1.525999999999999979e+01 2.480000000000000071e+01 3.000000000000000000e+00 5.519999999999999574e+00
4.000000000000000000e+00 3.000000000000000000e+00 1.400000000000000000e+01 2.280000000000000071e+01 3.000000000000000000e+00 5.000000000000000000e+00
4.360000000000000320e+00 3.000000000000000000e+00 1.400000000000000000e+01 2.023999999999999844e+01 3.000000000000000000e+00 4.860000000000000320e+00
4.959999999999999964e+00 3.000000000000000000e+00 1.456000000000000050e+01 1.955999999999999872e+01 3.000000000000000000e+00 4.000000000000000000e+00
5.000000000000000000e+00 3.000000000000000000e+00 1.424000000000000021e+01 1.817999999999999972e+01 3.000000000000000000e+00 4.759999999999999787e+00
5.000000000000000000e+00 3.000000000000000000e+00 1.400000000000000000e+01 1.766000000000000014e+01 3.000000000000000000e+00 5.000000000000000000e+00
5.000000000000000000e+00 3.000000000000000000e+00 1.400000000000000000e+01 1.678000000000000114e+01 3.000000000000000000e+00 5.000000000000000000e+00
4.540000000000000036e+00 3.000000000000000000e+00 1.424000000000000021e+01 1.522000000000000064e+01 2.879999999999999893e+00 4.900000000000000355e+00
5.000000000000000000e+00 3.000000000000000000e+00 1.361999999999999922e+01 1.456000000000000050e+01 2.000000000000000000e+00 5.480000000000000426e+00
4.740000000000000213e+00 3.000000000000000000e+00 1.353999999999999915e+01 1.383999999999999986e+01 2.000000000000000000e+00 6.000000000000000000e+00
4.860000000000000320e+00 3.000000000000000000e+00 1.300000000000000000e+01 1.285999999999999943e+01 2.000000000000000000e+00 6.000000000000000000e+00
5.000000000000000000e+00 3.000000000000000000e+00 1.300000000000000000e+01 1.177999999999999936e+01 2.279999999999999805e+00 6.000000000000000000e+00
4.900000000000000355e+00 3.000000000000000000e+00 1.300000000000000000e+01 1.100000000000000000e+01 2.319999999999999840e+00 6.000000000000000000e+00
5.000000000000000000e+00 3.000000000000000000e+00 1.256000000000000050e+01 1.127999999999999936e+01 2.000000000000000000e+00 6.219999999999999751e+00
5.000000000000000000e+00 3.000000000000000000e+00 1.200000000000000000e+01 1.125999999999999979e+01 2.000000000000000000e+00 6.219999999999999751e+00
5.000000000000000000e+00 5.000000000000000000e+00 1.000000000000000000e+01 1.950000000000000000e+01 7.000000000000000000e+00 2.257999999999999829e+01
5.000000000000000000e+00 5.000000000000000000e+00 1.000000000000000000e+01 1.850000000000000000e+01 7.639999999999999680e+00 2.267999999999999972e+01
5.000000000000000000e+00 5.000000000000000000e+00 1.000000000000000000e+01 1.800000000000000000e+01 7.339999999999999858e+00 2.357999999999999829e+01
5.000000000000000000e+00 5.000000000000000000e+00 1.000000000000000000e+01 1.800000000000000000e+01 8.000000000000000000e+00 2.398000000000000043e+01
5.000000000000000000e+00 5.000000000000000000e+00 9.900000000000000355e+00 1.866000000000000014e+01 8.000000000000000000e+00 2.500000000000000000e+01
5.000000000000000000e+00 5.000000000000000000e+00 1.000000000000000000e+01 1.896000000000000085e+01 8.000000000000000000e+00 2.557999999999999829e+01
5.000000000000000000e+00 5.000000000000000000e+00 1.050000000000000000e+01 1.900000000000000000e+01 8.900000000000000355e+00 2.696000000000000085e+01
5.000000000000000000e+00 5.000000000000000000e+00 1.000000000000000000e+01 1.900000000000000000e+01 9.000000000000000000e+00 2.685999999999999943e+01
5.860000000000000320e+00 5.000000000000000000e+00 1.000000000000000000e+01 1.900000000000000000e+01 9.000000000000000000e+00 2.600000000000000000e+01
6.000000000000000000e+00 5.019999999999999574e+00 1.000000000000000000e+01 1.851999999999999957e+01 9.000000000000000000e+00 2.630000000000000071e+01
6.919999999999999929e+00 5.639999999999999680e+00 1.000000000000000000e+01 1.800000000000000000e+01 9.599999999999999645e+00 2.651999999999999957e+01
7.099999999999999645e+00 5.959999999999999964e+00 1.000000000000000000e+01 1.787999999999999901e+01 1.000000000000000000e+01 2.748000000000000043e+01
7.320000000000000284e+00 6.000000000000000000e+00 1.051999999999999957e+01 1.771999999999999886e+01 1.100000000000000000e+01 2.723999999999999844e+01
7.179999999999999716e+00 6.000000000000000000e+00 1.100000000000000000e+01 1.780000000000000071e+01 1.100000000000000000e+01 2.730000000000000071e+01
7.839999999999999858e+00 6.519999999999999574e+00 1.100000000000000000e+01 1.676000000000000156e+01 1.111999999999999922e+01 2.807999999999999829e+01
8.000000000000000000e+00 7.000000000000000000e+00 1.100000000000000000e+01 1.591999999999999993e+01 1.150000000000000000e+01 2.787999999999999901e+01
7.599999999999999645e+00 7.000000000000000000e+00 1.022000000000000064e+01 1.498000000000000043e+01 1.140000000000000036e+01 2.700000000000000000e+01
7.500000000000000000e+00 7.000000000000000000e+00 1.000000000000000000e+01 1.488000000000000078e+01 1.198000000000000043e+01 2.744000000000000128e+01
8.000000000000000000e+00 7.000000000000000000e+00 1.000000000000000000e+01 1.500000000000000000e+01 1.200000000000000000e+01 2.966000000000000014e+01
8.000000000000000000e+00 7.000000000000000000e+00 1.080000000000000071e+01 1.558000000000000007e+01 1.291999999999999993e+01 3.128000000000000114e+01
7.040000000000000036e+00 7.339999999999999858e+00 1.164000000000000057e+01 1.600000000000000000e+01 2.007999999999999829e+01 3.465999999999999659e+01
7.000000000000000000e+00 8.000000000000000000e+00 1.200000000000000000e+01 1.600000000000000000e+01 2.300000000000000000e+01 3.600000000000000000e+01
7.000000000000000000e+00 7.799999999999999822e+00 1.200000000000000000e+01 1.558000000000000007e+01 2.362000000000000099e+01 3.657999999999999829e+01
7.440000000000000391e+00 8.000000000000000000e+00 1.200000000000000000e+01 1.600000000000000000e+01 2.400000000000000000e+01 3.724000000000000199e+01
8.000000000000000000e+00 8.000000000000000000e+00 1.200000000000000000e+01 1.664000000000000057e+01 2.400000000000000000e+01 3.743999999999999773e+01
8.000000000000000000e+00 8.000000000000000000e+00 1.209999999999999964e+01 1.700000000000000000e+01 2.400000000000000000e+01 3.717999999999999972e+01
8.000000000000000000e+00 8.000000000000000000e+00 1.300000000000000000e+01 1.700000000000000000e+01 2.400000000000000000e+01 3.779999999999999716e+01
8.000000000000000000e+00 8.000000000000000000e+00 1.300000000000000000e+01 1.700000000000000000e+01 2.400000000000000000e+01 3.800000000000000000e+01
8.000000000000000000e+00 8.000000000000000000e+00 1.353999999999999915e+01 1.700000000000000000e+01 2.400000000000000000e+01 3.757999999999999829e+01
8.000000000000000000e+00 7.759999999999999787e+00 1.348000000000000043e+01 1.700000000000000000e+01 2.400000000000000000e+01 3.597999999999999687e+01
8.000000000000000000e+00 7.000000000000000000e+00 1.259999999999999964e+01 1.700000000000000000e+01 1.764000000000000057e+01 3.393999999999999773e+01
8.000000000000000000e+00 6.580000000000000071e+00 1.200000000000000000e+01 1.680000000000000071e+01 1.400000000000000000e+01 3.224000000000000199e+01
7.019999999999999574e+00 6.000000000000000000e+00 1.200000000000000000e+01 1.771999999999999886e+01 1.398000000000000043e+01 3.189999999999999858e+01
7.000000000000000000e+00 6.000000000000000000e+00 1.200000000000000000e+01 1.726000000000000156e+01 1.300000000000000000e+01 3.200000000000000000e+01
7.000000000000000000e+00 6.000000000000000000e+00 1.200000000000000000e+01 1.700000000000000000e+01 1.296000000000000085e+01 3.114000000000000057e+01
7.000000000000000000e+00 6.000000000000000000e+00 1.200000000000000000e+01 1.700000000000000000e+01 1.291999999999999993e+01 3.150000000000000000e+01
7.000000000000000000e+00 5.459999999999999964e+00 1.140000000000000036e+01 1.637999999999999901e+01 1.200000000000000000e+01 2.996000000000000085e+01
6.980000000000000426e+00 6.000000000000000000e+00 1.100000000000000000e+01 1.666000000000000014e+01 1.200000000000000000e+01 3.053999999999999915e+01
6.559999999999999609e+00 6.000000000000000000e+00 1.046000000000000085e+01 1.700000000000000000e+01 1.200000000000000000e+01 3.021999999999999886e+01
6.000000000000000000e+00 6.000000000000000000e+00 1.000000000000000000e+01 1.650000000000000000e+01 1.172000000000000064e+01 2.907999999999999829e+01
1.500000000000000000e+01 1.238000000000000078e+01 9.779999999999999361e+00 2.035999999999999943e+01 6.599999999999999645e+00 9.460000000000000853e+00
1.382000000000000028e+01 1.119999999999999929e+01 9.000000000000000000e+00 1.900000000000000000e+01 7.000000000000000000e+00 9.000000000000000000e+00
1.300000000000000000e+01 1.182000000000000028e+01 9.000000000000000000e+00 1.848000000000000043e+01 7.000000000000000000e+00 9.000000000000000000e+00
1.300000000000000000e+01 1.100000000000000000e+01 8.679999999999999716e+00 1.710000000000000142e+01 7.059999999999999609e+00 9.580000000000000071e+00
1.300000000000000000e+01 1.100000000000000000e+01 8.839999999999999858e+00 1.680000000000000071e+01 8.000000000000000000e+00 1.000000000000000000e+01
1.366000000000000014e+01 1.172000000000000064e+01 9.000000000000000000e+00 1.703999999999999915e+01 8.519999999999999574e+00 1.053999999999999915e+01
1.575999999999999979e+01 1.435999999999999943e+01 9.839999999999999858e+00 2.030000000000000071e+01 1.038000000000000078e+01 1.100000000000000000e+01
1.892000000000000171e+01 1.648000000000000043e+01 1.180000000000000071e+01 2.262000000000000099e+01 1.196000000000000085e+01 1.135999999999999943e+01
1.900000000000000000e+01 1.700000000000000000e+01 1.306000000000000050e+01 2.300000000000000000e+01 1.333999999999999986e+01 1.266000000000000014e+01
1.998000000000000043e+01 1.766000000000000014e+01 1.451999999999999957e+01 2.300000000000000000e+01 1.330000000000000071e+01 1.325999999999999979e+01
2.044000000000000128e+01 1.800000000000000000e+01 1.662000000000000099e+01 2.300000000000000000e+01 1.400000000000000000e+01 1.400000000000000000e+01
2.100000000000000000e+01 1.800000000000000000e+01 1.700000000000000000e+01 2.296000000000000085e+01 1.400000000000000000e+01 1.400000000000000000e+01
2.100000000000000000e+01 1.800000000000000000e+01 1.757999999999999829e+01 2.217999999999999972e+01 1.400000000000000000e+01 1.400000000000000000e+01
2.100000000000000000e+01 1.883999999999999986e+01 1.800000000000000000e+01 2.200000000000000000e+01 1.459999999999999964e+01 1.400000000000000000e+01
2.101999999999999957e+01 1.900000000000000000e+01 1.814000000000000057e+01 2.200000000000000000e+01 1.569999999999999929e+01 1.400000000000000000e+01
2.100000000000000000e+01 1.853999999999999915e+01 1.962000000000000099e+01 2.139999999999999858e+01 1.671999999999999886e+01 1.425999999999999979e+01
2.055999999999999872e+01 1.662000000000000099e+01 1.944000000000000128e+01 1.819999999999999929e+01 1.700000000000000000e+01 1.467999999999999972e+01
1.800000000000000000e+01 1.491999999999999993e+01 1.930000000000000071e+01 1.524000000000000021e+01 1.600000000000000000e+01 1.535999999999999943e+01
1.898000000000000043e+01 1.500000000000000000e+01 2.000000000000000000e+01 1.496000000000000085e+01 1.600000000000000000e+01 1.500000000000000000e+01
1.957999999999999829e+01 1.525999999999999979e+01 2.000000000000000000e+01 1.400000000000000000e+01 1.600000000000000000e+01 1.500000000000000000e+01
1.933999999999999986e+01 1.600000000000000000e+01 1.932000000000000028e+01 1.400000000000000000e+01 1.600000000000000000e+01 1.503999999999999915e+01
2.000000000000000000e+01 1.648000000000000043e+01 1.980000000000000071e+01 1.414000000000000057e+01 1.696000000000000085e+01 1.600000000000000000e+01
2.028000000000000114e+01 1.689999999999999858e+01 2.100000000000000000e+01 1.500000000000000000e+01 1.700000000000000000e+01 1.600000000000000000e+01
2.126000000000000156e+01 1.723999999999999844e+01 2.180000000000000071e+01 1.490000000000000036e+01 1.700000000000000000e+01 1.600000000000000000e+01
2.200000000000000000e+01 1.800000000000000000e+01 2.200000000000000000e+01 1.496000000000000085e+01 1.607999999999999829e+01 1.607999999999999829e+01
2.198000000000000043e+01 1.860000000000000142e+01 2.101999999999999957e+01 1.500000000000000000e+01 1.500000000000000000e+01 1.616000000000000014e+01
2.316000000000000014e+01 2.003999999999999915e+01 2.100000000000000000e+01 1.500000000000000000e+01 1.424000000000000021e+01 1.600000000000000000e+01
2.478000000000000114e+01 2.100000000000000000e+01 2.069999999999999929e+01 1.500000000000000000e+01 1.400000000000000000e+01 1.600000000000000000e+01
2.400000000000000000e+01 2.100000000000000000e+01 2.000000000000000000e+01 1.500000000000000000e+01 1.325999999999999979e+01 1.535999999999999943e+01
2.328000000000000114e+01 2.067999999999999972e+01 1.964000000000000057e+01 1.500000000000000000e+01 1.293999999999999950e+01 1.591999999999999993e+01
2.300000000000000000e+01 2.057999999999999829e+01 1.900000000000000000e+01 1.403999999999999915e+01 1.233999999999999986e+01 1.601999999999999957e+01
2.300000000000000000e+01 2.100000000000000000e+01 1.878000000000000114e+01 1.400000000000000000e+01 1.200000000000000000e+01 1.600000000000000000e+01
2.300000000000000000e+01 2.053999999999999915e+01 1.721999999999999886e+01 1.400000000000000000e+01 1.133999999999999986e+01 1.535999999999999943e+01
2.273999999999999844e+01 2.000000000000000000e+01 1.700000000000000000e+01 1.388000000000000078e+01 1.100000000000000000e+01 1.500000000000000000e+01
2.200000000000000000e+01 2.000000000000000000e+01 1.742000000000000171e+01 1.356000000000000050e+01 1.100000000000000000e+01 1.451999999999999957e+01
2.200000000000000000e+01 1.919999999999999929e+01 1.778000000000000114e+01 1.393999999999999950e+01 1.033999999999999986e+01 1.435999999999999943e+01
2.010000000000000142e+01 1.800000000000000000e+01 1.821999999999999886e+01 1.400000000000000000e+01 1.000000000000000000e+01 1.400000000000000000e+01
1.866000000000000014e+01 1.703999999999999915e+01 1.900000000000000000e+01 1.400000000000000000e+01 1.066000000000000014e+01 1.451999999999999957e+01
1.912000000000000099e+01 1.700000000000000000e+01 1.907999999999999829e+01 1.325999999999999979e+01 1.100000000000000000e+01 1.500000000000000000e+01
1.926000000000000156e+01 1.685999999999999943e+01 1.900000000000000000e+01 1.346000000000000085e+01 1.100000000000000000e+01 1.419999999999999929e+01
1.200000000000000000e+01 1.500000000000000000e+01 7.435999999999999943e+01 1.300000000000000000e+01 1.000000000000000000e+01 7.000000000000000000e+00
1.200000000000000000e+01 1.498000000000000043e+01 7.300000000000000000e+01 1.359999999999999964e+01 1.000000000000000000e+01 7.000000000000000000e+00
1.200000000000000000e+01 1.464000000000000057e+01 7.373999999999999488e+01 1.333999999999999986e+01 1.000000000000000000e+01 7.000000000000000000e+00
1.190000000000000036e+01 1.400000000000000000e+01 6.909999999999999432e+01 1.300000000000000000e+01 1.000000000000000000e+01 7.000000000000000000e+00
1.193999999999999950e+01 1.482000000000000028e+01 6.800000000000000000e+01 1.256000000000000050e+01 1.000000000000000000e+01 7.000000000000000000e+00
1.132000000000000028e+01 1.435999999999999943e+01 6.615999999999999659e+01 1.200000000000000000e+01 1.000000000000000000e+01 7.000000000000000000e+00
1.100000000000000000e+01 1.400000000000000000e+01 6.465999999999999659e+01 1.200000000000000000e+01 1.000000000000000000e+01 7.000000000000000000e+00
1.100000000000000000e+01 1.364000000000000057e+01 6.332000000000000028e+01 1.200000000000000000e+01 1.000000000000000000e+01 7.000000000000000000e+00
1.111999999999999922e+01 1.459999999999999964e+01 6.215999999999999659e+01 1.111999999999999922e+01 1.096000000000000085e+01 7.980000000000000426e+00
1.151999999999999957e+01 1.500000000000000000e+01 5.956000000000000227e+01 1.114000000000000057e+01 1.100000000000000000e+01 8.000000000000000000e+00
1.100000000000000000e+01 1.514000000000000057e+01 5.810000000000000142e+01 1.100000000000000000e+01 1.100000000000000000e+01 7.959999999999999964e+00
1.132000000000000028e+01 1.569999999999999929e+01 5.770000000000000284e+01 1.100000000000000000e+01 1.100000000000000000e+01 7.940000000000000391e+00
1.133999999999999986e+01 1.600000000000000000e+01 5.352000000000000313e+01 1.100000000000000000e+01 1.100000000000000000e+01 7.259999999999999787e+00
1.166000000000000014e+01 1.596000000000000085e+01 5.128000000000000114e+01 1.100000000000000000e+01 1.100000000000000000e+01 8.000000000000000000e+00
1.200000000000000000e+01 1.535999999999999943e+01 5.074000000000000199e+01 1.140000000000000036e+01 1.135999999999999943e+01 8.000000000000000000e+00
1.200000000000000000e+01 1.600000000000000000e+01 5.007999999999999829e+01 1.200000000000000000e+01 1.161999999999999922e+01 8.000000000000000000e+00
1.200000000000000000e+01 1.600000000000000000e+01 5.029999999999999716e+01 1.232000000000000028e+01 1.200000000000000000e+01 8.000000000000000000e+00
1.269999999999999929e+01 1.600000000000000000e+01 4.915999999999999659e+01 1.291999999999999993e+01 1.198000000000000043e+01 8.380000000000000782e+00
1.290000000000000036e+01 1.532000000000000028e+01 4.820000000000000284e+01 1.300000000000000000e+01 1.146000000000000085e+01 8.000000000000000000e+00
1.300000000000000000e+01 1.500000000000000000e+01 4.615999999999999659e+01 1.350000000000000000e+01 1.082000000000000028e+01 8.000000000000000000e+00
1.348000000000000043e+01 1.458000000000000007e+01 4.460000000000000142e+01 1.391999999999999993e+01 1.100000000000000000e+01 8.000000000000000000e+00
1.311999999999999922e+01 1.500000000000000000e+01 4.450000000000000000e+01 1.493999999999999950e+01 1.085999999999999943e+01 8.000000000000000000e+00
1.300000000000000000e+01 1.500000000000000000e+01 4.221999999999999886e+01 1.546000000000000085e+01 1.000000000000000000e+01 8.000000000000000000e+00
1.300000000000000000e+01 1.500000000000000000e+01 4.242000000000000171e+01 1.630000000000000071e+01 1.000000000000000000e+01 8.000000000000000000e+00
1.300000000000000000e+01 1.559999999999999964e+01 4.278000000000000114e+01 1.739999999999999858e+01 1.000000000000000000e+01 7.660000000000000142e+00
1.290000000000000036e+01 1.550000000000000000e+01 4.388000000000000256e+01 1.869999999999999929e+01 1.000000000000000000e+01 8.000000000000000000e+00
1.200000000000000000e+01 1.591999999999999993e+01 4.300000000000000000e+01 1.900000000000000000e+01 9.160000000000000142e+00 7.559999999999999609e+00
1.200000000000000000e+01 1.500000000000000000e+01 4.224000000000000199e+01 1.989999999999999858e+01 9.000000000000000000e+00 7.000000000000000000e+00
1.117999999999999972e+01 1.417999999999999972e+01 4.043999999999999773e+01 2.000000000000000000e+01 8.560000000000000497e+00 7.000000000000000000e+00
1.019999999999999929e+01 1.333999999999999986e+01 3.935999999999999943e+01 2.000000000000000000e+01 7.879999999999999893e+00 6.440000000000000391e+00
9.380000000000000782e+00 1.300000000000000000e+01 3.846000000000000085e+01 1.953999999999999915e+01 7.219999999999999751e+00 6.000000000000000000e+00
8.720000000000000639e+00 1.190000000000000036e+01 3.350000000000000000e+01 1.864000000000000057e+01 7.000000000000000000e+00 6.000000000000000000e+00
8.000000000000000000e+00 1.100000000000000000e+01 3.196000000000000085e+01 1.853999999999999915e+01 6.660000000000000142e+00 5.700000000000000178e+00
7.540000000000000036e+00 9.939999999999999503e+00 2.935999999999999943e+01 1.766000000000000014e+01 6.000000000000000000e+00 5.000000000000000000e+00
6.820000000000000284e+00 7.679999999999999716e+00 2.523999999999999844e+01 1.653999999999999915e+01 5.059999999999999609e+00 4.259999999999999787e+00
5.740000000000000213e+00 6.040000000000000036e+00 2.089999999999999858e+01 1.441999999999999993e+01 4.019999999999999574e+00 3.540000000000000036e+00
4.860000000000000320e+00 4.000000000000000000e+00 1.866000000000000014e+01 1.314000000000000057e+01 4.000000000000000000e+00 3.000000000000000000e+00
3.500000000000000000e+00 3.220000000000000195e+00 1.646000000000000085e+01 1.074000000000000021e+01 3.580000000000000071e+00 2.500000000000000000e+00
3.000000000000000000e+00 3.000000000000000000e+00 1.416000000000000014e+01 9.519999999999999574e+00 3.000000000000000000e+00 2.640000000000000124e+00
3.000000000000000000e+00 3.000000000000000000e+00 1.291999999999999993e+01 8.220000000000000639e+00 3.000000000000000000e+00 3.000000000000000000e+00
1.558000000000000007e+01 1.100000000000000000e+01 2.839999999999999858e+01 3.253999999999999915e+01 2.400000000000000000e+01 1.300000000000000000e+01
1.600000000000000000e+01 1.100000000000000000e+01 3.078000000000000114e+01 3.300000000000000000e+01 2.460000000000000142e+01 1.309999999999999964e+01
1.600000000000000000e+01 1.166000000000000014e+01 3.119999999999999929e+01 3.300000000000000000e+01 2.500000000000000000e+01 1.400000000000000000e+01
1.651999999999999957e+01 1.200000000000000000e+01 2.919999999999999929e+01 3.338000000000000256e+01 2.500000000000000000e+01 1.400000000000000000e+01
1.673999999999999844e+01 1.200000000000000000e+01 2.951999999999999957e+01 3.400000000000000000e+01 2.592000000000000171e+01 1.400000000000000000e+01
1.700000000000000000e+01 1.200000000000000000e+01 3.080000000000000071e+01 3.435999999999999943e+01 2.623999999999999844e+01 1.400000000000000000e+01
1.601999999999999957e+01 1.200000000000000000e+01 3.137999999999999901e+01 3.461999999999999744e+01 2.700000000000000000e+01 1.400000000000000000e+01
1.600000000000000000e+01 1.200000000000000000e+01 3.133999999999999986e+01 3.310000000000000142e+01 2.601999999999999957e+01 1.383999999999999986e+01
1.600000000000000000e+01 1.198000000000000043e+01 3.203999999999999915e+01 3.083999999999999986e+01 2.412000000000000099e+01 1.311999999999999922e+01
1.600000000000000000e+01 1.164000000000000057e+01 3.100000000000000000e+01 2.212000000000000099e+01 1.805999999999999872e+01 1.200000000000000000e+01
1.543999999999999950e+01 1.200000000000000000e+01 3.017999999999999972e+01 2.187999999999999901e+01 1.630000000000000071e+01 1.290000000000000036e+01
1.500000000000000000e+01 1.200000000000000000e+01 2.900000000000000000e+01 2.196000000000000085e+01 1.600000000000000000e+01 1.209999999999999964e+01
1.500000000000000000e+01 1.200000000000000000e+01 2.880000000000000071e+01 2.200000000000000000e+01 1.600000000000000000e+01 1.200000000000000000e+01
1.500000000000000000e+01 1.203999999999999915e+01 2.889999999999999858e+01 2.162000000000000099e+01 1.550000000000000000e+01 1.253999999999999915e+01
1.500000000000000000e+01 1.300000000000000000e+01 2.826000000000000156e+01 2.100000000000000000e+01 1.500000000000000000e+01 1.350000000000000000e+01
1.500000000000000000e+01 1.300000000000000000e+01 2.817999999999999972e+01 2.116000000000000014e+01 1.535999999999999943e+01 1.451999999999999957e+01
1.500000000000000000e+01 1.300000000000000000e+01 2.832000000000000028e+01 2.100000000000000000e+01 1.400000000000000000e+01 1.540000000000000036e+01
1.500000000000000000e+01 1.319999999999999929e+01 2.819999999999999929e+01 2.126000000000000156e+01 1.411999999999999922e+01 1.590000000000000036e+01
1.500000000000000000e+01 1.353999999999999915e+01 2.705999999999999872e+01 2.192000000000000171e+01 1.400000000000000000e+01 1.582000000000000028e+01
1.500000000000000000e+01 1.359999999999999964e+01 2.714000000000000057e+01 2.251999999999999957e+01 1.400000000000000000e+01 1.600000000000000000e+01
1.533999999999999986e+01 1.325999999999999979e+01 2.700000000000000000e+01 2.200000000000000000e+01 1.400000000000000000e+01 1.600000000000000000e+01
1.556000000000000050e+01 1.300000000000000000e+01 2.664000000000000057e+01 2.200000000000000000e+01 1.400000000000000000e+01 1.600000000000000000e+01
1.506000000000000050e+01 1.300000000000000000e+01 2.642000000000000171e+01 2.200000000000000000e+01 1.400000000000000000e+01 1.600000000000000000e+01
1.509999999999999964e+01 1.300000000000000000e+01 2.676000000000000156e+01 2.200000000000000000e+01 1.400000000000000000e+01 1.543999999999999950e+01
1.500000000000000000e+01 1.200000000000000000e+01 2.600000000000000000e+01 2.132000000000000028e+01 1.341999999999999993e+01 1.443999999999999950e+01
1.590000000000000036e+01 1.208000000000000007e+01 2.626000000000000156e+01 2.073999999999999844e+01 1.243999999999999950e+01 1.350000000000000000e+01
1.548000000000000043e+01 1.200000000000000000e+01 2.596000000000000085e+01 2.000000000000000000e+01 1.200000000000000000e+01 1.253999999999999915e+01
1.500000000000000000e+01 1.117999999999999972e+01 2.444000000000000128e+01 1.917999999999999972e+01 1.166000000000000014e+01 1.200000000000000000e+01
1.453999999999999915e+01 1.019999999999999929e+01 2.239999999999999858e+01 1.819999999999999929e+01 1.100000000000000000e+01 1.117999999999999972e+01
1.283999999999999986e+01 9.560000000000000497e+00 2.087999999999999901e+01 1.728000000000000114e+01 1.035999999999999943e+01 1.056000000000000050e+01
1.167999999999999972e+01 9.000000000000000000e+00 1.900000000000000000e+01 1.617999999999999972e+01 9.119999999999999218e+00 9.060000000000000497e+00
1.100000000000000000e+01 8.419999999999999929e+00 1.835999999999999943e+01 1.532000000000000028e+01 8.460000000000000853e+00 8.779999999999999361e+00
1.058000000000000007e+01 7.719999999999999751e+00 1.683999999999999986e+01 1.340000000000000036e+01 7.740000000000000213e+00 8.000000000000000000e+00
9.000000000000000000e+00 6.879999999999999893e+00 1.466000000000000014e+01 1.225999999999999979e+01 6.540000000000000036e+00 7.440000000000000391e+00
7.980000000000000426e+00 5.660000000000000142e+00 1.293999999999999950e+01 1.053999999999999915e+01 5.000000000000000000e+00 6.500000000000000000e+00
5.459999999999999964e+00 4.280000000000000249e+00 1.011999999999999922e+01 9.339999999999999858e+00 4.219999999999999751e+00 5.860000000000000320e+00
4.280000000000000249e+00 3.640000000000000124e+00 5.599999999999999645e+00 8.339999999999999858e+00 3.339999999999999858e+00 5.000000000000000000e+00
3.819999999999999840e+00 3.000000000000000000e+00 4.040000000000000036e+00 8.000000000000000000e+00 3.000000000000000000e+00 4.280000000000000249e+00
3.000000000000000000e+00 3.000000000000000000e+00 4.000000000000000000e+00 7.440000000000000391e+00 2.240000000000000213e+00 3.419999999999999929e+00
2.319999999999999840e+00 2.180000000000000160e+00 3.160000000000000142e+00 5.620000000000000107e+00 1.100000000000000089e+00 3.000000000000000000e+00
1.100000000000000000e+01 1.000000000000000000e+01 8.809999999999999432e+01 1.100000000000000000e+01 6.000000000000000000e+00 5.000000000000000000e+00
1.074000000000000021e+01 1.000000000000000000e+01 9.081999999999999318e+01 1.100000000000000000e+01 6.000000000000000000e+00 5.000000000000000000e+00
1.000000000000000000e+01 1.088000000000000078e+01 9.357999999999999829e+01 1.100000000000000000e+01 6.000000000000000000e+00 5.000000000000000000e+00
1.000000000000000000e+01 1.100000000000000000e+01 9.312000000000000455e+01 1.100000000000000000e+01 6.000000000000000000e+00 5.179999999999999716e+00
1.017999999999999972e+01 1.100000000000000000e+01 9.095999999999999375e+01 1.096000000000000085e+01 6.000000000000000000e+00 6.000000000000000000e+00
1.046000000000000085e+01 1.100000000000000000e+01 8.543999999999999773e+01 1.100000000000000000e+01 6.000000000000000000e+00 6.000000000000000000e+00
1.051999999999999957e+01 1.161999999999999922e+01 8.257999999999999829e+01 1.100000000000000000e+01 6.000000000000000000e+00 6.000000000000000000e+00
1.000000000000000000e+01 1.200000000000000000e+01 8.162000000000000455e+01 1.100000000000000000e+01 6.000000000000000000e+00 6.000000000000000000e+00
1.000000000000000000e+01 1.200000000000000000e+01 7.621999999999999886e+01 1.100000000000000000e+01 6.000000000000000000e+00 6.000000000000000000e+00
1.000000000000000000e+01 1.200000000000000000e+01 7.526000000000000512e+01 1.085999999999999943e+01 6.000000000000000000e+00 6.000000000000000000e+00
9.759999999999999787e+00 1.159999999999999964e+01 7.265999999999999659e+01 1.000000000000000000e+01 5.559999999999999609e+00 6.000000000000000000e+00
1.000000000000000000e+01 1.200000000000000000e+01 6.901999999999999602e+01 1.000000000000000000e+01 5.000000000000000000e+00 5.580000000000000071e+00
1.000000000000000000e+01 1.111999999999999922e+01 6.568000000000000682e+01 9.820000000000000284e+00 4.679999999999999716e+00 5.000000000000000000e+00
9.220000000000000639e+00 1.183999999999999986e+01 6.481999999999999318e+01 9.339999999999999858e+00 4.160000000000000142e+00 5.000000000000000000e+00
9.000000000000000000e+00 1.177999999999999936e+01 6.364000000000000057e+01 9.380000000000000782e+00 3.979999999999999982e+00 5.000000000000000000e+00
9.000000000000000000e+00 1.122000000000000064e+01 6.347999999999999687e+01 9.000000000000000000e+00 3.040000000000000036e+00 5.000000000000000000e+00
9.000000000000000000e+00 1.100000000000000000e+01 6.339999999999999858e+01 9.000000000000000000e+00 3.279999999999999805e+00 5.000000000000000000e+00
9.199999999999999289e+00 1.100000000000000000e+01 6.396000000000000085e+01 9.000000000000000000e+00 4.080000000000000071e+00 5.000000000000000000e+00
1.000000000000000000e+01 1.100000000000000000e+01 6.445999999999999375e+01 8.720000000000000639e+00 4.299999999999999822e+00 5.000000000000000000e+00
9.000000000000000000e+00 1.100000000000000000e+01 6.418000000000000682e+01 9.000000000000000000e+00 4.000000000000000000e+00 5.000000000000000000e+00
9.580000000000000071e+00 1.100000000000000000e+01 6.515999999999999659e+01 9.000000000000000000e+00 4.339999999999999858e+00 5.000000000000000000e+00
9.179999999999999716e+00 1.100000000000000000e+01 6.490000000000000568e+01 9.000000000000000000e+00 5.000000000000000000e+00 5.000000000000000000e+00
9.060000000000000497e+00 1.100000000000000000e+01 6.406000000000000227e+01 9.000000000000000000e+00 5.000000000000000000e+00 5.639999999999999680e+00
9.000000000000000000e+00 1.100000000000000000e+01 6.270000000000000284e+01 9.000000000000000000e+00 5.000000000000000000e+00 5.000000000000000000e+00
9.000000000000000000e+00 1.100000000000000000e+01 5.956000000000000227e+01 9.000000000000000000e+00 5.000000000000000000e+00 5.000000000000000000e+00
9.000000000000000000e+00 1.100000000000000000e+01 5.846000000000000085e+01 9.000000000000000000e+00 5.000000000000000000e+00 5.639999999999999680e+00
9.000000000000000000e+00 1.164000000000000057e+01 5.838000000000000256e+01 9.000000000000000000e+00 4.780000000000000249e+00 6.000000000000000000e+00
9.000000000000000000e+00 1.200000000000000000e+01 5.779999999999999716e+01 9.000000000000000000e+00 4.019999999999999574e+00 6.000000000000000000e+00
9.060000000000000497e+00 1.200000000000000000e+01 5.850000000000000000e+01 9.320000000000000284e+00 4.580000000000000071e+00 6.000000000000000000e+00
9.320000000000000284e+00 1.200000000000000000e+01 5.832000000000000028e+01 1.000000000000000000e+01 4.780000000000000249e+00 6.200000000000000178e+00
1.000000000000000000e+01 1.200000000000000000e+01 5.789999999999999858e+01 1.000000000000000000e+01 5.000000000000000000e+00 7.000000000000000000e+00
1.000000000000000000e+01 1.200000000000000000e+01 5.700000000000000000e+01 1.000000000000000000e+01 5.000000000000000000e+00 7.000000000000000000e+00
9.939999999999999503e+00 1.200000000000000000e+01 5.810000000000000142e+01 1.000000000000000000e+01 5.000000000000000000e+00 7.000000000000000000e+00
1.000000000000000000e+01 1.238000000000000078e+01 6.407999999999999829e+01 1.000000000000000000e+01 5.000000000000000000e+00 7.000000000000000000e+00
1.048000000000000043e+01 1.400000000000000000e+01 6.735999999999999943e+01 1.000000000000000000e+01 5.440000000000000391e+00 7.000000000000000000e+00
1.109999999999999964e+01 1.422000000000000064e+01 7.370000000000000284e+01 1.009999999999999964e+01 6.200000000000000178e+00 7.000000000000000000e+00
1.200000000000000000e+01 1.535999999999999943e+01 7.451999999999999602e+01 1.001999999999999957e+01 7.000000000000000000e+00 7.000000000000000000e+00
1.200000000000000000e+01 1.588000000000000078e+01 7.800000000000000000e+01 1.000000000000000000e+01 7.000000000000000000e+00 7.000000000000000000e+00
1.208000000000000007e+01 1.700000000000000000e+01 7.906000000000000227e+01 1.000000000000000000e+01 7.080000000000000071e+00 7.000000000000000000e+00
1.300000000000000000e+01 1.800000000000000000e+01 8.284000000000000341e+01 1.066000000000000014e+01 8.539999999999999147e+00 7.000000000000000000e+00
5.000000000000000000e+00 5.000000000000000000e+00 9.000000000000000000e+00 1.300000000000000000e+01 1.200000000000000000e+01 2.300000000000000000e+01
5.480000000000000426e+00 5.000000000000000000e+00 9.000000000000000000e+00 1.300000000000000000e+01 1.200000000000000000e+01 2.333999999999999986e+01
5.000000000000000000e+00 5.000000000000000000e+00 8.300000000000000711e+00 1.300000000000000000e+01 1.200000000000000000e+01 2.278000000000000114e+01
5.019999999999999574e+00 5.000000000000000000e+00 8.000000000000000000e+00 1.240000000000000036e+01 1.188000000000000078e+01 2.223999999999999844e+01
5.000000000000000000e+00 5.000000000000000000e+00 8.000000000000000000e+00 1.251999999999999957e+01 1.100000000000000000e+01 2.100000000000000000e+01
5.259999999999999787e+00 5.000000000000000000e+00 8.000000000000000000e+00 1.285999999999999943e+01 1.035999999999999943e+01 2.100000000000000000e+01
6.000000000000000000e+00 5.000000000000000000e+00 8.179999999999999716e+00 1.200000000000000000e+01 1.000000000000000000e+01 2.100000000000000000e+01
6.000000000000000000e+00 4.919999999999999929e+00 8.000000000000000000e+00 1.200000000000000000e+01 1.000000000000000000e+01 2.021999999999999886e+01
6.000000000000000000e+00 5.000000000000000000e+00 8.000000000000000000e+00 1.200000000000000000e+01 1.000000000000000000e+01 2.007999999999999829e+01
6.000000000000000000e+00 5.000000000000000000e+00 8.000000000000000000e+00 1.200000000000000000e+01 1.000000000000000000e+01 2.100000000000000000e+01
6.000000000000000000e+00 5.000000000000000000e+00 8.000000000000000000e+00 1.200000000000000000e+01 1.000000000000000000e+01 2.071999999999999886e+01
6.000000000000000000e+00 5.000000000000000000e+00 8.000000000000000000e+00 1.150000000000000000e+01 1.000000000000000000e+01 2.023999999999999844e+01
6.000000000000000000e+00 5.000000000000000000e+00 8.000000000000000000e+00 1.200000000000000000e+01 1.000000000000000000e+01 2.012000000000000099e+01
6.000000000000000000e+00 5.000000000000000000e+00 7.679999999999999716e+00 1.132000000000000028e+01 1.000000000000000000e+01 2.192000000000000171e+01
6.000000000000000000e+00 5.019999999999999574e+00 7.000000000000000000e+00 1.103999999999999915e+01 1.000000000000000000e+01 2.200000000000000000e+01
6.000000000000000000e+00 6.000000000000000000e+00 7.000000000000000000e+00 1.100000000000000000e+01 1.074000000000000021e+01 2.598000000000000043e+01
6.000000000000000000e+00 6.000000000000000000e+00 7.000000000000000000e+00 1.111999999999999922e+01 1.100000000000000000e+01 2.689999999999999858e+01
6.000000000000000000e+00 6.000000000000000000e+00 7.000000000000000000e+00 1.200000000000000000e+01 1.100000000000000000e+01 2.798000000000000043e+01
6.000000000000000000e+00 6.000000000000000000e+00 7.000000000000000000e+00 1.140000000000000036e+01 1.025999999999999979e+01 2.828000000000000114e+01
6.000000000000000000e+00 6.000000000000000000e+00 7.000000000000000000e+00 1.158000000000000007e+01 1.000000000000000000e+01 2.800000000000000000e+01
6.000000000000000000e+00 6.000000000000000000e+00 6.379999999999999893e+00 1.100000000000000000e+01 9.140000000000000568e+00 2.707999999999999829e+01
5.419999999999999929e+00 5.440000000000000391e+00 6.000000000000000000e+00 1.100000000000000000e+01 9.000000000000000000e+00 2.600000000000000000e+01
5.000000000000000000e+00 5.000000000000000000e+00 5.599999999999999645e+00 1.022000000000000064e+01 8.539999999999999147e+00 2.519999999999999929e+01
5.000000000000000000e+00 5.000000000000000000e+00 5.000000000000000000e+00 1.000000000000000000e+01 8.000000000000000000e+00 2.285999999999999943e+01
4.919999999999999929e+00 4.139999999999999680e+00 5.000000000000000000e+00 9.320000000000000284e+00 7.820000000000000284e+00 2.194000000000000128e+01
3.479999999999999982e+00 3.419999999999999929e+00 4.000000000000000000e+00 8.500000000000000000e+00 5.940000000000000391e+00 1.632000000000000028e+01
3.000000000000000000e+00 3.000000000000000000e+00 3.700000000000000178e+00 7.459999999999999964e+00 4.820000000000000284e+00 1.390000000000000036e+01
3.000000000000000000e+00 2.660000000000000142e+00 3.000000000000000000e+00 6.000000000000000000e+00 4.000000000000000000e+00 9.460000000000000853e+00
3.000000000000000000e+00 2.000000000000000000e+00 2.740000000000000213e+00 5.120000000000000107e+00 3.560000000000000053e+00 6.660000000000000142e+00
2.100000000000000089e+00 2.000000000000000000e+00 2.000000000000000000e+00 3.220000000000000195e+00 2.000000000000000000e+00 3.640000000000000124e+00
2.000000000000000000e+00 2.000000000000000000e+00 2.000000000000000000e+00 3.000000000000000000e+00 2.000000000000000000e+00 2.299999999999999822e+00
2.000000000000000000e+00 2.000000000000000000e+00 2.000000000000000000e+00 2.379999999999999893e+00 1.139999999999999902e+00 1.560000000000000053e+00
2.000000000000000000e+00 2.000000000000000000e+00 2.000000000000000000e+00 2.000000000000000000e+00 1.000000000000000000e+00 1.000000000000000000e+00
1.580000000000000071e+00 2.000000000000000000e+00 2.000000000000000000e+00 2.000000000000000000e+00 1.000000000000000000e+00 1.000000000000000000e+00
1.000000000000000000e+00 2.000000000000000000e+00 2.919999999999999929e+00 2.000000000000000000e+00 1.000000000000000000e+00 1.000000000000000000e+00
1.000000000000000000e+00 2.000000000000000000e+00 3.000000000000000000e+00 2.100000000000000089e+00 1.000000000000000000e+00 1.000000000000000000e+00
1.000000000000000000e+00 2.000000000000000000e+00 3.000000000000000000e+00 4.400000000000000355e+00 6.999999999999999556e-01 1.000000000000000000e+00
1.000000000000000000e+00 2.000000000000000000e+00 3.000000000000000000e+00 8.339999999999999858e+00 0.000000000000000000e+00 1.000000000000000000e+00
1.000000000000000000e+00 2.000000000000000000e+00 3.000000000000000000e+00 1.109999999999999964e+01 0.000000000000000000e+00 1.000000000000000000e+00
1.000000000000000000e+00 2.000000000000000000e+00 3.000000000000000000e+00 1.390000000000000036e+01 0.000000000000000000e+00 1.000000000000000000e+00
0.000000000000000000e+00 1.000000000000000000e+00 1.000000000000000000e+00 1.000000000000000000e+00 0.000000000000000000e+00 1.000000000000000000e+00
0.000000000000000000e+00 1.000000000000000000e+00 1.000000000000000000e+00 1.000000000000000000e+00 0.000000000000000000e+00 1.000000000000000000e+00
0.000000000000000000e+00 1.000000000000000000e+00 1.000000000000000000e+00 1.000000000000000000e+00 0.000000000000000000e+00 1.000000000000000000e+00
0.000000000000000000e+00 1.000000000000000000e+00 1.000000000000000000e+00 1.000000000000000000e+00 0.000000000000000000e+00 1.000000000000000000e+00
0.000000000000000000e+00 1.000000000000000000e+00 1.000000000000000000e+00 1.000000000000000000e+00 0.000000000000000000e+00 1.000000000000000000e+00
0.000000000000000000e+00 1.000000000000000000e+00 1.000000000000000000e+00 1.000000000000000000e+00 0.000000000000000000e+00 1.000000000000000000e+00
0.000000000000000000e+00 1.000000000000000000e+00 1.000000000000000000e+00 1.000000000000000000e+00 0.000000000000000000e+00 1.000000000000000000e+00
0.000000000000000000e+00 1.000000000000000000e+00 1.000000000000000000e+00 1.000000000000000000e+00 0.000000000000000000e+00 1.000000000000000000e+00
0.000000000000000000e+00 1.000000000000000000e+00 1.000000000000000000e+00 1.000000000000000000e+00 0.000000000000000000e+00 1.000000000000000000e+00
0.000000000000000000e+00 1.000000000000000000e+00 1.000000000000000000e+00 1.000000000000000000e+00 0.000000000000000000e+00 1.000000000000000000e+00
0.000000000000000000e+00 1.000000000000000000e+00 1.000000000000000000e+00 1.000000000000000000e+00 0.000000000000000000e+00 1.000000000000000000e+00
0.000000000000000000e+00 1.000000000000000000e+00 1.000000000000000000e+00 1.000000000000000000e+00 0.000000000000000000e+00 1.000000000000000000e+00
0.000000000000000000e+00 1.000000000000000000e+00 1.000000000000000000e+00 1.000000000000000000e+00 0.000000000000000000e+00 1.000000000000000000e+00
0.000000000000000000e+00 1.000000000000000000e+00 1.000000000000000000e+00 1.000000000000000000e+00 0.000000000000000000e+00 1.000000000000000000e+00
0.000000000000000000e+00 1.000000000000000000e+00 1.000000000000000000e+00 1.000000000000000000e+00 0.000000000000000000e+00 1.000000000000000000e+00
0.000000000000000000e+00 1.000000000000000000e+00 1.000000000000000000e+00 1.000000000000000000e+00 0.000000000000000000e+00 1.000000000000000000e+00
0.000000000000000000e+00 1.000000000000000000e+00 1.000000000000000000e+00 1.000000000000000000e+00 0.000000000000000000e+00 1.000000000000000000e+00
0.000000000000000000e+00 1.000000000000000000e+00 1.000000000000000000e+00 1.000000000000000000e+00 0.000000000000000000e+00 1.000000000000000000e+00
0.000000000000000000e+00 1.000000000000000000e+00 1.000000000000000000e+00 1.000000000000000000e+00 0.000000000000000000e+00 1.000000000000000000e+00
0.000000000000000000e+00 1.000000000000000000e+00 1.000000000000000000e+00 1.000000000000000000e+00 0.000000000000000000e+00 1.000000000000000000e+00
0.000000000000000000e+00 1.000000000000000000e+00 1.000000000000000000e+00 1.000000000000000000e+00 0.000000000000000000e+00 1.000000000000000000e+00
0.000000000000000000e+00 1.000000000000000000e+00 1.000000000000000000e+00 1.000000000000000000e+00 0.000000000000000000e+00 1.000000000000000000e+00
0.000000000000000000e+00 1.000000000000000000e+00 1.000000000000000000e+00 1.000000000000000000e+00 0.000000000000000000e+00 1.000000000000000000e+00
0.000000000000000000e+00 1.000000000000000000e+00 1.000000000000000000e+00 1.000000000000000000e+00 0.000000000000000000e+00 1.000000000000000000e+00
0.000000000000000000e+00 1.000000000000000000e+00 1.000000000000000000e+00 1.000000000000000000e+00 0.000000000000000000e+00 1.000000000000000000e+00
0.000000000000000000e+00 1.000000000000000000e+00 1.000000000000000000e+00 1.000000000000000000e+00 0.000000000000000000e+00 1.000000000000000000e+00
0.000000000000000000e+00 1.000000000000000000e+00 1.000000000000000000e+00 1.000000000000000000e+00 0.000000000000000000e+00 1.000000000000000000e+00
0.000000000000000000e+00 1.000000000000000000e+00 1.000000000000000000e+00 1.000000000000000000e+00 0.000000000000000000e+00 1.000000000000000000e+00
0.000000000000000000e+00 1.000000000000000000e+00 1.000000000000000000e+00 1.000000000000000000e+00 0.000000000000000000e+00 1.000000000000000000e+00
0.000000000000000000e+00 1.000000000000000000e+00 1.000000000000000000e+00 1.000000000000000000e+00 0.000000000000000000e+00 1.000000000000000000e+00
0.000000000000000000e+00 1.000000000000000000e+00 1.000000000000000000e+00 1.000000000000000000e+00 0.000000000000000000e+00 1.000000000000000000e+00
0.000000000000000000e+00 1.000000000000000000e+00 1.000000000000000000e+00 1.000000000000000000e+00 0.000000000000000000e+00 1.000000000000000000e+00
0.000000000000000000e+00 1.000000000000000000e+00 1.000000000000000000e+00 1.000000000000000000e+00 0.000000000000000000e+00 1.000000000000000000e+00
0.000000000000000000e+00 1.000000000000000000e+00 1.000000000000000000e+00 1.000000000000000000e+00 0.000000000000000000e+00 1.000000000000000000e+00
0.000000000000000000e+00 1.000000000000000000e+00 1.000000000000000000e+00 1.000000000000000000e+00 0.000000000000000000e+00 1.000000000000000000e+00
0.000000000000000000e+00 1.000000000000000000e+00 1.000000000000000000e+00 1.000000000000000000e+00 0.000000000000000000e+00 1.000000000000000000e+00
0.000000000000000000e+00 1.000000000000000000e+00 1.000000000000000000e+00 1.000000000000000000e+00 0.000000000000000000e+00 1.000000000000000000e+00
0.000000000000000000e+00 1.000000000000000000e+00 1.000000000000000000e+00 1.000000000000000000e+00 0.000000000000000000e+00 1.000000000000000000e+00
0.000000000000000000e+00 1.000000000000000000e+00 1.000000000000000000e+00 1.000000000000000000e+00 0.000000000000000000e+00 1.000000000000000000e+00
0.000000000000000000e+00 1.000000000000000000e+00 1.000000000000000000e+00 1.000000000000000000e+00 0.000000000000000000e+00 1.000000000000000000e+00
1.400000000000000000e+01 1.517999999999999972e+01 9.920000000000000284e+01 3.500000000000000000e+01 1.190000000000000036e+01 8.160000000000000142e+00
1.400000000000000000e+01 1.626000000000000156e+01 1.000000000000000000e+02 3.482000000000000028e+01 1.200000000000000000e+01 9.000000000000000000e+00
1.474000000000000021e+01 1.719999999999999929e+01 9.823999999999999488e+01 3.400000000000000000e+01 1.200000000000000000e+01 9.679999999999999716e+00
1.600000000000000000e+01 1.914000000000000057e+01 9.473999999999999488e+01 3.400000000000000000e+01 1.203999999999999915e+01 1.074000000000000021e+01
1.600000000000000000e+01 2.000000000000000000e+01 9.618000000000000682e+01 2.182000000000000028e+01 1.296000000000000085e+01 1.069999999999999929e+01
1.600000000000000000e+01 2.000000000000000000e+01 9.650000000000000000e+01 1.433999999999999986e+01 1.209999999999999964e+01 1.066000000000000014e+01
1.600000000000000000e+01 2.000000000000000000e+01 9.259999999999999432e+01 1.275999999999999979e+01 1.151999999999999957e+01 1.000000000000000000e+01
1.600000000000000000e+01 2.033999999999999986e+01 8.934000000000000341e+01 1.267999999999999972e+01 1.100000000000000000e+01 1.011999999999999922e+01
1.600000000000000000e+01 2.100000000000000000e+01 8.815999999999999659e+01 1.300000000000000000e+01 1.077999999999999936e+01 1.059999999999999964e+01
1.575999999999999979e+01 2.107999999999999829e+01 8.928000000000000114e+01 1.264000000000000057e+01 1.000000000000000000e+01 1.006000000000000050e+01
1.500000000000000000e+01 2.087999999999999901e+01 8.779999999999999716e+01 1.217999999999999972e+01 1.000000000000000000e+01 1.100000000000000000e+01
1.500000000000000000e+01 2.096000000000000085e+01 8.620000000000000284e+01 1.246000000000000085e+01 1.038000000000000078e+01 1.027999999999999936e+01
1.448000000000000043e+01 2.000000000000000000e+01 8.573999999999999488e+01 1.241999999999999993e+01 1.100000000000000000e+01 9.539999999999999147e+00
1.359999999999999964e+01 1.833999999999999986e+01 8.462000000000000455e+01 1.200000000000000000e+01 1.088000000000000078e+01 8.960000000000000853e+00
1.300000000000000000e+01 1.783999999999999986e+01 8.021999999999999886e+01 1.185999999999999943e+01 1.003999999999999915e+01 9.000000000000000000e+00
1.232000000000000028e+01 1.800000000000000000e+01 7.734000000000000341e+01 1.100000000000000000e+01 1.000000000000000000e+01 8.919999999999999929e+00
1.274000000000000021e+01 1.816000000000000014e+01 7.181999999999999318e+01 1.100000000000000000e+01 1.000000000000000000e+01 8.699999999999999289e+00
1.238000000000000078e+01 1.751999999999999957e+01 7.164000000000000057e+01 1.100000000000000000e+01 1.000000000000000000e+01 8.080000000000000071e+00
1.200000000000000000e+01 1.616000000000000014e+01 6.871999999999999886e+01 1.100000000000000000e+01 1.000000000000000000e+01 8.000000000000000000e+00
1.243999999999999950e+01 1.600000000000000000e+01 6.420000000000000284e+01 1.100000000000000000e+01 1.000000000000000000e+01 8.000000000000000000e+00
1.300000000000000000e+01 1.600000000000000000e+01 6.397999999999999687e+01 1.080000000000000071e+01 1.000000000000000000e+01 8.000000000000000000e+00
1.300000000000000000e+01 1.585999999999999943e+01 6.400000000000000000e+01 1.000000000000000000e+01 9.859999999999999432e+00 8.000000000000000000e+00
1.316000000000000014e+01 1.600000000000000000e+01 6.443999999999999773e+01 1.000000000000000000e+01 9.320000000000000284e+00 8.619999999999999218e+00
1.300000000000000000e+01 1.525999999999999979e+01 6.289999999999999858e+01 1.061999999999999922e+01 1.000000000000000000e+01 8.300000000000000711e+00
1.300000000000000000e+01 1.500000000000000000e+01 6.107999999999999829e+01 1.100000000000000000e+01 1.000000000000000000e+01 8.199999999999999289e+00
1.300000000000000000e+01 1.500000000000000000e+01 6.010000000000000142e+01 1.100000000000000000e+01 1.000000000000000000e+01 8.560000000000000497e+00
1.300000000000000000e+01 1.500000000000000000e+01 6.102000000000000313e+01 1.100000000000000000e+01 1.000000000000000000e+01 8.000000000000000000e+00
1.300000000000000000e+01 1.500000000000000000e+01 6.628000000000000114e+01 1.100000000000000000e+01 1.038000000000000078e+01 8.900000000000000355e+00
1.332000000000000028e+01 1.500000000000000000e+01 7.209999999999999432e+01 1.100000000000000000e+01 1.088000000000000078e+01 9.740000000000000213e+00
1.400000000000000000e+01 1.500000000000000000e+01 7.465999999999999659e+01 1.100000000000000000e+01 1.100000000000000000e+01 1.000000000000000000e+01
1.391999999999999993e+01 1.500000000000000000e+01 7.404000000000000625e+01 1.100000000000000000e+01 1.100000000000000000e+01 1.000000000000000000e+01
1.341999999999999993e+01 1.488000000000000078e+01 7.484000000000000341e+01 1.169999999999999929e+01 1.100000000000000000e+01 9.800000000000000711e+00
1.300000000000000000e+01 1.474000000000000021e+01 7.664000000000000057e+01 1.200000000000000000e+01 1.100000000000000000e+01 9.060000000000000497e+00
1.300000000000000000e+01 1.500000000000000000e+01 7.765999999999999659e+01 1.190000000000000036e+01 1.019999999999999929e+01 1.000000000000000000e+01
1.327999999999999936e+01 1.600000000000000000e+01 7.923999999999999488e+01 1.180000000000000071e+01 1.000000000000000000e+01 1.000000000000000000e+01
1.311999999999999922e+01 1.540000000000000036e+01 8.237999999999999545e+01 1.188000000000000078e+01 1.027999999999999936e+01 1.000000000000000000e+01
1.300000000000000000e+01 1.500000000000000000e+01 8.384000000000000341e+01 1.200000000000000000e+01 1.035999999999999943e+01 1.000000000000000000e+01
1.300000000000000000e+01 1.501999999999999957e+01 8.143999999999999773e+01 1.200000000000000000e+01 1.000000000000000000e+01 1.000000000000000000e+01
1.267999999999999972e+01 1.600000000000000000e+01 7.698000000000000398e+01 1.200000000000000000e+01 1.000000000000000000e+01 9.380000000000000782e+00
1.300000000000000000e+01 1.696000000000000085e+01 7.614000000000000057e+01 1.269999999999999929e+01 1.000000000000000000e+01 9.000000000000000000e+00
2.000000000000000000e+00 5.000000000000000000e+00 1.000000000000000000e+00 1.000000000000000000e+00 0.000000000000000000e+00 2.000000000000000000e+00
2.140000000000000124e+00 4.360000000000000320e+00 1.000000000000000000e+00 1.000000000000000000e+00 0.000000000000000000e+00 2.000000000000000000e+00
4.160000000000000142e+00 3.779999999999999805e+00 1.000000000000000000e+00 1.000000000000000000e+00 0.000000000000000000e+00 2.000000000000000000e+00
5.959999999999999964e+00 3.660000000000000142e+00 1.399999999999999911e+00 1.000000000000000000e+00 0.000000000000000000e+00 2.000000000000000000e+00
6.000000000000000000e+00 3.000000000000000000e+00 1.000000000000000000e+00 1.000000000000000000e+00 0.000000000000000000e+00 2.000000000000000000e+00
6.000000000000000000e+00 2.959999999999999964e+00 1.000000000000000000e+00 1.000000000000000000e+00 0.000000000000000000e+00 2.000000000000000000e+00
6.000000000000000000e+00 2.000000000000000000e+00 1.000000000000000000e+00 1.000000000000000000e+00 0.000000000000000000e+00 1.959999999999999964e+00
6.000000000000000000e+00 2.000000000000000000e+00 1.000000000000000000e+00 1.000000000000000000e+00 0.000000000000000000e+00 1.000000000000000000e+00
6.000000000000000000e+00 2.000000000000000000e+00 1.000000000000000000e+00 1.000000000000000000e+00 0.000000000000000000e+00 1.000000000000000000e+00
6.000000000000000000e+00 2.000000000000000000e+00 1.000000000000000000e+00 1.000000000000000000e+00 0.000000000000000000e+00 1.000000000000000000e+00
6.000000000000000000e+00 2.000000000000000000e+00 1.000000000000000000e+00 1.000000000000000000e+00 0.000000000000000000e+00 1.820000000000000062e+00
6.000000000000000000e+00 2.000000000000000000e+00 1.000000000000000000e+00 1.000000000000000000e+00 0.000000000000000000e+00 1.860000000000000098e+00
4.959999999999999964e+00 2.000000000000000000e+00 1.000000000000000000e+00 1.000000000000000000e+00 0.000000000000000000e+00 1.739999999999999991e+00
2.299999999999999822e+00 2.000000000000000000e+00 1.000000000000000000e+00 1.000000000000000000e+00 0.000000000000000000e+00 2.000000000000000000e+00
2.000000000000000000e+00 2.000000000000000000e+00 1.000000000000000000e+00 1.000000000000000000e+00 0.000000000000000000e+00 2.000000000000000000e+00
2.000000000000000000e+00 2.000000000000000000e+00 1.000000000000000000e+00 1.000000000000000000e+00 0.000000000000000000e+00 2.000000000000000000e+00
2.000000000000000000e+00 2.060000000000000053e+00 1.000000000000000000e+00 1.000000000000000000e+00 0.000000000000000000e+00 2.000000000000000000e+00
2.000000000000000000e+00 2.839999999999999858e+00 1.000000000000000000e+00 1.000000000000000000e+00 0.000000000000000000e+00 2.000000000000000000e+00
2.000000000000000000e+00 3.000000000000000000e+00 1.000000000000000000e+00 1.000000000000000000e+00 0.000000000000000000e+00 2.000000000000000000e+00
2.000000000000000000e+00 3.000000000000000000e+00 1.000000000000000000e+00 1.000000000000000000e+00 0.000000000000000000e+00 2.000000000000000000e+00
2.000000000000000000e+00 3.000000000000000000e+00 1.000000000000000000e+00 1.000000000000000000e+00 0.000000000000000000e+00 2.000000000000000000e+00
2.000000000000000000e+00 3.000000000000000000e+00 1.000000000000000000e+00 1.000000000000000000e+00 0.000000000000000000e+00 2.000000000000000000e+00
2.000000000000000000e+00 3.000000000000000000e+00 1.000000000000000000e+00 1.000000000000000000e+00 0.000000000000000000e+00 2.000000000000000000e+00
2.000000000000000000e+00 3.000000000000000000e+00 1.000000000000000000e+00 1.000000000000000000e+00 0.000000000000000000e+00 2.000000000000000000e+00
2.000000000000000000e+00 3.000000000000000000e+00 1.000000000000000000e+00 1.000000000000000000e+00 0.000000000000000000e+00 2.000000000000000000e+00
2.000000000000000000e+00 3.000000000000000000e+00 1.000000000000000000e+00 1.000000000000000000e+00 0.000000000000000000e+00 2.000000000000000000e+00
2.000000000000000000e+00 3.000000000000000000e+00 1.000000000000000000e+00 1.000000000000000000e+00 0.000000000000000000e+00 2.000000000000000000e+00
1.719999999999999973e+00 3.000000000000000000e+00 1.000000000000000000e+00 1.000000000000000000e+00 0.000000000000000000e+00 2.000000000000000000e+00
1.780000000000000027e+00 3.000000000000000000e+00 1.000000000000000000e+00 1.000000000000000000e+00 0.000000000000000000e+00 2.000000000000000000e+00
2.000000000000000000e+00 3.000000000000000000e+00 1.000000000000000000e+00 1.000000000000000000e+00 0.000000000000000000e+00 2.000000000000000000e+00
1.159999999999999920e+00 2.279999999999999805e+00 1.000000000000000000e+00 1.000000000000000000e+00 0.000000000000000000e+00 2.000000000000000000e+00
1.000000000000000000e+00 2.000000000000000000e+00 1.000000000000000000e+00 1.000000000000000000e+00 0.000000000000000000e+00 2.000000000000000000e+00
1.000000000000000000e+00 2.000000000000000000e+00 1.000000000000000000e+00 1.000000000000000000e+00 0.000000000000000000e+00 2.000000000000000000e+00
1.000000000000000000e+00 2.000000000000000000e+00 1.000000000000000000e+00 1.000000000000000000e+00 0.000000000000000000e+00 2.000000000000000000e+00
1.000000000000000000e+00 2.000000000000000000e+00 1.000000000000000000e+00 1.000000000000000000e+00 0.000000000000000000e+00 2.000000000000000000e+00
1.000000000000000000e+00 2.000000000000000000e+00 1.000000000000000000e+00 1.000000000000000000e+00 0.000000000000000000e+00 2.000000000000000000e+00
1.000000000000000000e+00 2.000000000000000000e+00 1.000000000000000000e+00 1.000000000000000000e+00 0.000000000000000000e+00 2.000000000000000000e+00
1.000000000000000000e+00 2.000000000000000000e+00 1.000000000000000000e+00 1.000000000000000000e+00 0.000000000000000000e+00 2.000000000000000000e+00
1.000000000000000000e+00 2.000000000000000000e+00 1.939999999999999947e+00 1.000000000000000000e+00 0.000000000000000000e+00 2.000000000000000000e+00
1.000000000000000000e+00 1.959999999999999964e+00 1.560000000000000053e+00 1.879999999999999893e+00 0.000000000000000000e+00 2.000000000000000000e+00
0.000000000000000000e+00 1.939999999999999947e+00 1.000000000000000000e+00 1.000000000000000000e+00 0.000000000000000000e+00 1.000000000000000000e+00
0.000000000000000000e+00 1.479999999999999982e+00 1.000000000000000000e+00 1.000000000000000000e+00 0.000000000000000000e+00 1.000000000000000000e+00
0.000000000000000000e+00 2.000000000000000000e+00 1.000000000000000000e+00 1.000000000000000000e+00 0.000000000000000000e+00 1.000000000000000000e+00
0.000000000000000000e+00 2.000000000000000000e+00 1.000000000000000000e+00 1.000000000000000000e+00 0.000000000000000000e+00 1.000000000000000000e+00
0.000000000000000000e+00 2.000000000000000000e+00 1.000000000000000000e+00 1.000000000000000000e+00 0.000000000000000000e+00 1.000000000000000000e+00
0.000000000000000000e+00 2.000000000000000000e+00 1.000000000000000000e+00 1.000000000000000000e+00 0.000000000000000000e+00 1.000000000000000000e+00
0.000000000000000000e+00 2.000000000000000000e+00 1.000000000000000000e+00 1.000000000000000000e+00 0.000000000000000000e+00 1.000000000000000000e+00
0.000000000000000000e+00 2.000000000000000000e+00 1.000000000000000000e+00 1.000000000000000000e+00 0.000000000000000000e+00 1.000000000000000000e+00
5.600000000000000533e-01 2.000000000000000000e+00 1.000000000000000000e+00 1.000000000000000000e+00 0.000000000000000000e+00 1.000000000000000000e+00
1.000000000000000000e+00 2.000000000000000000e+00 1.000000000000000000e+00 1.000000000000000000e+00 0.000000000000000000e+00 1.000000000000000000e+00
1.000000000000000000e+00 2.000000000000000000e+00 1.000000000000000000e+00 1.000000000000000000e+00 0.000000000000000000e+00 1.000000000000000000e+00
1.000000000000000000e+00 2.000000000000000000e+00 1.000000000000000000e+00 1.000000000000000000e+00 0.000000000000000000e+00 1.000000000000000000e+00
1.000000000000000000e+00 2.000000000000000000e+00 1.000000000000000000e+00 1.000000000000000000e+00 0.000000000000000000e+00 1.000000000000000000e+00
1.000000000000000000e+00 2.000000000000000000e+00 1.000000000000000000e+00 1.000000000000000000e+00 0.000000000000000000e+00 1.000000000000000000e+00
1.000000000000000000e+00 2.000000000000000000e+00 1.000000000000000000e+00 1.000000000000000000e+00 0.000000000000000000e+00 1.000000000000000000e+00
1.000000000000000000e+00 2.000000000000000000e+00 1.000000000000000000e+00 1.000000000000000000e+00 0.000000000000000000e+00 1.000000000000000000e+00
1.000000000000000000e+00 2.000000000000000000e+00 1.000000000000000000e+00 1.000000000000000000e+00 0.000000000000000000e+00 1.000000000000000000e+00
1.000000000000000000e+00 2.000000000000000000e+00 1.000000000000000000e+00 1.000000000000000000e+00 0.000000000000000000e+00 1.000000000000000000e+00
1.000000000000000000e+00 2.000000000000000000e+00 1.000000000000000000e+00 1.000000000000000000e+00 0.000000000000000000e+00 1.000000000000000000e+00
1.000000000000000000e+00 2.000000000000000000e+00 1.000000000000000000e+00 1.000000000000000000e+00 0.000000000000000000e+00 1.000000000000000000e+00
1.000000000000000000e+00 2.000000000000000000e+00 1.040000000000000036e+00 1.000000000000000000e+00 0.000000000000000000e+00 1.000000000000000000e+00
1.000000000000000000e+00 2.000000000000000000e+00 2.000000000000000000e+00 1.000000000000000000e+00 0.000000000000000000e+00 1.000000000000000000e+00
1.000000000000000000e+00 2.000000000000000000e+00 2.000000000000000000e+00 1.000000000000000000e+00 0.000000000000000000e+00 1.000000000000000000e+00
1.000000000000000000e+00 2.000000000000000000e+00 2.000000000000000000e+00 1.000000000000000000e+00 0.000000000000000000e+00 1.000000000000000000e+00
1.000000000000000000e+00 2.000000000000000000e+00 2.000000000000000000e+00 1.000000000000000000e+00 0.000000000000000000e+00 1.000000000000000000e+00
1.000000000000000000e+00 2.000000000000000000e+00 2.000000000000000000e+00 1.000000000000000000e+00 0.000000000000000000e+00 1.000000000000000000e+00
1.000000000000000000e+00 2.000000000000000000e+00 2.000000000000000000e+00 1.000000000000000000e+00 0.000000000000000000e+00 1.000000000000000000e+00
1.000000000000000000e+00 2.000000000000000000e+00 2.000000000000000000e+00 1.000000000000000000e+00 0.000000000000000000e+00 1.000000000000000000e+00
1.000000000000000000e+00 2.000000000000000000e+00 2.000000000000000000e+00 1.000000000000000000e+00 0.000000000000000000e+00 1.000000000000000000e+00
1.000000000000000000e+00 2.000000000000000000e+00 2.000000000000000000e+00 1.000000000000000000e+00 0.000000000000000000e+00 1.000000000000000000e+00
1.000000000000000000e+00 2.000000000000000000e+00 1.959999999999999964e+00 1.000000000000000000e+00 0.000000000000000000e+00 1.000000000000000000e+00
1.000000000000000000e+00 2.000000000000000000e+00 1.000000000000000000e+00 1.000000000000000000e+00 0.000000000000000000e+00 1.000000000000000000e+00
1.000000000000000000e+00 2.000000000000000000e+00 1.000000000000000000e+00 1.000000000000000000e+00 0.000000000000000000e+00 1.000000000000000000e+00
1.000000000000000000e+00 2.000000000000000000e+00 1.000000000000000000e+00 1.000000000000000000e+00 0.000000000000000000e+00 1.000000000000000000e+00
1.000000000000000000e+00 2.000000000000000000e+00 1.000000000000000000e+00 1.000000000000000000e+00 0.000000000000000000e+00 1.000000000000000000e+00
1.000000000000000000e+00 2.000000000000000000e+00 1.000000000000000000e+00 1.000000000000000000e+00 0.000000000000000000e+00 1.000000000000000000e+00
1.000000000000000000e+00 2.000000000000000000e+00 1.000000000000000000e+00 1.000000000000000000e+00 0.000000000000000000e+00 1.000000000000000000e+00
1.000000000000000000e+00 2.000000000000000000e+00 1.000000000000000000e+00 1.000000000000000000e+00 0.000000000000000000e+00 1.000000000000000000e+00
1.000000000000000000e+00 2.000000000000000000e+00 1.000000000000000000e+00 1.000000000000000000e+00 0.000000000000000000e+00 1.000000000000000000e+00
1.000000000000000000e+00 2.000000000000000000e+00 1.000000000000000000e+00 1.000000000000000000e+00 0.000000000000000000e+00 4.600000000000000200e-01
