3.522930320086070992e+02 2.462889224464633031e+01 2.979793191170151445e+01 5.560948154642684926e+01 2.429163469193456137e+01 2.429163469193456137e+01
3.525501676884829863e+02 2.463117907202982693e+01 2.971791917302419961e+01 5.549992853997550668e+01 2.420930415204861674e+01 2.420930415204861674e+01
3.527103593464437381e+02 2.464204699448485414e+01 2.967137580319455736e+01 5.537169961435524357e+01 2.417915581997019103e+01 2.417915581997019103e+01
3.527040641969092576e+02 2.472253373581276392e+01 2.965923571190598551e+01 5.518953248671696343e+01 2.413783382837818792e+01 2.413783382837818792e+01
3.522174749625825712e+02 2.481814041539776738e+01 2.964979064166220013e+01 5.512523564777195162e+01 2.409644097551334241e+01 2.409644097551334241e+01
3.517513024668103299e+02 2.488173807912944113e+01 2.966907494841049342e+01 5.512829544056652509e+01 2.400224231871677816e+01 2.400224231871677816e+01
3.512259743386549644e+02 2.493103261877454102e+01 2.968637811748680377e+01 5.511001236166062967e+01 2.390767251253033265e+01 2.390767251253033265e+01
3.504732058230664506e+02 2.495210134153835213e+01 2.968637811748680022e+01 5.506253534684348239e+01 2.389750045185476068e+01 2.389750045185476068e+01
3.497825034351167801e+02 2.490628613178609285e+01 2.969590062440267175e+01 5.505619085790794998e+01 2.390874841405125650e+01 2.390874841405125650e+01
3.494118975227625015e+02 2.484084226427115638e+01 2.970227681465511793e+01 5.511603916776302725e+01 2.390982426715843445e+01 2.390982426715843445e+01
3.490841212836491536e+02 2.482596826708678961e+01 2.968277440358968633e+01 5.517475088138040462e+01 2.395368744570235364e+01 2.395368744570235364e+01
3.486737927228507488e+02 2.482975643695282741e+01 2.959927741777490340e+01 5.515790328232561990e+01 2.398626409273437332e+01 2.398626409273437332e+01
3.483169066613584164e+02 2.482370654512336117e+01 2.946630702844181826e+01 5.498904482696882923e+01 2.398626409273437332e+01 2.398626409273437332e+01
3.480431572161956524e+02 2.481508931755838532e+01 2.927690169356040073e+01 5.491240106590119296e+01 2.395368744570235009e+01 2.395368744570235009e+01
3.476295996104725532e+02 2.480527785610151881e+01 2.918200177325742928e+01 5.499082758808405913e+01 2.391999108708860788e+01 2.391999108708860788e+01
3.469919473129851326e+02 2.480494984954415116e+01 2.916381038435135764e+01 5.503493215715258202e+01 2.400331398133179306e+01 2.400331398133179306e+01
3.462291710292151379e+02 2.479531638835044660e+01 2.916344232038460760e+01 5.497915694754137661e+01 2.408634863499236189e+01 2.408634863499236189e+01
3.455395440750269245e+02 2.474741695931921370e+01 2.916344232038460760e+01 5.499040696650996551e+01 2.411661298620513705e+01 2.411661298620513705e+01
3.450153866285639310e+02 2.464015380305894709e+01 2.915767112741344746e+01 5.497117687317952317e+01 2.411554635844683148e+01 2.411554635844683148e+01
3.451565912422613565e+02 2.450601733612380073e+01 2.916242533628504674e+01 5.495895054113012179e+01 2.407197811577599111e+01 2.407197811577599111e+01
3.455055381746253147e+02 2.445936657394055302e+01 2.917093817302419012e+01 5.498515124742667837e+01 2.403951762258133229e+01 2.403951762258133229e+01
3.457855820974285166e+02 2.445936657394055302e+01 2.914762144900334917e+01 5.508200746471016629e+01 2.413676813838999635e+01 2.413676813838999635e+01
3.458996559011550858e+02 2.443901922251382786e+01 2.909763290397348001e+01 5.515393515119648526e+01 2.417016228341048034e+01 2.417016228341048034e+01
3.461391403641857210e+02 2.436567679171667322e+01 2.906170148863277092e+01 5.513702014819433117e+01 2.413996506721578328e+01 2.413996506721578328e+01
3.462902736818022049e+02 2.435769498615171358e+01 2.910324159495639762e+01 5.506605688536620136e+01 2.412989093067762525e+01 2.412989093067762525e+01
3.462943929445832509e+02 2.437711797728353602e+01 2.910663526233151188e+01 5.510271142024126334e+01 2.412882488987804308e+01 2.412882488987804308e+01
3.461651833120966444e+02 2.425100001398705274e+01 2.910600683526340759e+01 5.509998253159783843e+01 2.412775880197740719e+01 2.412775880197740719e+01
3.455899104368318149e+02 2.373509403222157843e+01 2.910794293203145955e+01 5.511314793497453479e+01 2.413783382837818436e+01 2.413783382837818436e+01
3.448355983199783168e+02 2.339149684304961596e+01 2.908570331923229091e+01 5.518806502372036960e+01 2.413783382837818436e+01 2.413783382837818436e+01
3.441335810090864129e+02 2.330043861386304727e+01 2.901467475286256459e+01 5.528796790715307452e+01 2.405390753466883780e+01 2.405390753466883780e+01
3.434930841079299171e+02 2.328786777526873664e+01 2.898967443167308744e+01 5.540390416949320951e+01 2.389534758747814536e+01 2.389534758747814536e+01
3.428730770788185396e+02 2.328786777526874019e+01 2.897991986694235678e+01 5.545650533618564992e+01 2.389534758747814536e+01 2.389534758747814536e+01
3.422559560009692632e+02 2.328544902376589576e+01 2.894156502704026579e+01 5.543133341299294159e+01 2.379711049027586256e+01 2.379711049027586256e+01
3.417374604148299113e+02 2.328177477595727041e+01 2.888659290907115818e+01 5.546042583123922753e+01 2.363356297823917629e+01 2.363356297823917629e+01
3.415606291249292212e+02 2.328247863949197694e+01 2.887995554522894537e+01 5.545812639408572409e+01 2.360049948976498868e+01 2.360049948976498868e+01
3.413195506504387708e+02 2.328480641273189278e+01 2.888327987979204892e+01 5.538621883846547433e+01 2.360049948976498513e+01 2.360049948976498513e+01
3.414035629038124284e+02 2.328774052926561211e+01 2.889447552966483812e+01 5.535147218224992827e+01 2.361188893431437208e+01 2.361188893431437208e+01
3.415632141624993778e+02 2.327624027540531060e+01 2.891588817197908767e+01 5.536366730720055784e+01 2.352717982603094171e+01 2.352717982603094171e+01
3.417439900724187396e+02 2.327391164541105439e+01 2.892503197119063074e+01 5.535964683794854579e+01 2.344216462032457571e+01 2.344216462032457571e+01
3.419962973496313339e+02 2.328394115948587029e+01 2.892539957294280839e+01 5.530690204542636224e+01 2.335683997475680229e+01 2.335683997475680229e+01
3.419495277749297770e+02 2.328509869419496781e+01 2.895732403062133642e+01 5.502811032719900908e+01 2.327120248561292470e+01 2.327120248561292470e+01
3.417923376141388303e+02 2.328633712197777683e+01 2.901866938876419511e+01 5.479780765927033315e+01 2.322826534389508168e+01 2.322826534389508168e+01
3.416699528645407327e+02 2.322135255488792893e+01 2.904212494660816191e+01 5.480298765087891155e+01 2.322826534389508168e+01 2.322826534389508168e+01
3.415698951266892323e+02 2.313682793293843432e+01 2.900890449731599929e+01 5.444318372562710096e+01 2.304902209132520596e+01 2.304902209132520596e+01
3.412863965559387793e+02 2.312565789763396396e+01 2.899971162295240035e+01 5.332514804951216547e+01 2.264224110123372213e+01 2.264224110123372213e+01
3.407061719718876702e+02 2.311599774524993833e+01 2.900654851261005263e+01 5.218369287145547730e+01 2.208821629390652319e+01 2.208821629390652319e+01
3.399649425331639918e+02 2.311724523204268422e+01 2.901021092467961182e+01 5.158363718954289823e+01 2.179359274296916382e+01 2.179359274296916382e+01
3.393808043277308002e+02 2.311490058465318853e+01 2.898455824977155615e+01 5.146270669700917466e+01 2.178125252978804838e+01 2.178125252978804838e+01
3.393799935843854314e+02 2.309200470289230012e+01 2.895684802692448301e+01 5.144926900726960639e+01 2.173537226565025193e+01 2.173537226565025193e+01
3.394132486322499176e+02 2.301348865162342605e+01 2.894081800043669261e+01 5.117545486131405141e+01 2.163089402143143403e+01 2.163089402143143403e+01
3.395415742936606875e+02 2.287741220851694024e+01 2.884260404288074398e+01 5.052033831183629786e+01 2.152590868712394467e+01 2.152590868712394467e+01
3.398439938163061242e+02 2.288976656758211448e+01 2.866137323113462188e+01 4.956593650424043318e+01 2.147948301441163821e+01 2.147948301441163821e+01
3.401066549599661926e+02 2.279670433546041863e+01 2.855248575613689610e+01 4.848289347906532498e+01 2.146816045790598437e+01 2.146816045790598437e+01
3.403166575574834951e+02 2.250260466164749928e+01 2.855248575613689965e+01 4.738480824000871650e+01 2.146816045790598437e+01 2.146816045790598437e+01
3.405354352379462739e+02 2.233362952854729855e+01 2.856825559067967646e+01 4.625012905779180983e+01 2.147948301441163466e+01 2.147948301441163466e+01
3.406861427449867961e+02 2.234541527379609249e+01 2.852004247918295832e+01 4.527339295372504324e+01 2.147948301441163466e+01 2.147948301441163466e+01
3.406470629346119949e+02 2.236196125742104357e+01 2.849448782018025028e+01 4.458755318452000438e+01 2.146816045790598082e+01 2.146816045790598082e+01
3.405434541988107071e+02 2.235936460810994930e+01 2.849411111044527090e+01 4.416744532279855662e+01 2.146816045790598082e+01 2.146816045790598082e+01
3.404661208212903603e+02 2.235936460810994930e+01 2.848972478867425906e+01 4.398209489624613155e+01 2.146816045790598082e+01 2.146816045790598082e+01
3.403120870380855649e+02 2.234815738083119285e+01 2.843726584843206240e+01 4.395583898166886172e+01 2.146816045790598082e+01 2.146816045790598082e+01
3.398058748006242240e+02 2.229742904817503302e+01 2.832622950649098215e+01 4.389695811719076346e+01 2.146696223703758832e+01 2.146696223703758832e+01
3.392420726075960715e+02 2.223627881994646316e+01 2.823636602069041857e+01 4.352410603541903100e+01 2.146576394928440479e+01 2.146576394928440479e+01
3.387269015771518070e+02 2.221992623386494969e+01 2.816015159004653867e+01 4.302292148265154026e+01 2.147708776921112062e+01 2.147708776921112062e+01
3.384166501424796820e+02 2.221665361116295045e+01 2.808429147787781588e+01 4.265061891910127656e+01 2.146576394928440124e+01 2.146576394928440124e+01
3.382397381378738714e+02 2.221508829418419850e+01 2.806692741812684488e+01 4.237950640701704685e+01 2.135996700761492306e+01 2.135996700761492306e+01
3.381710021345672317e+02 2.222372656235672395e+01 2.807048513393383615e+01 4.216676984857150501e+01 2.125364343368915598e+01 2.125364343368915598e+01
3.381068453400751537e+02 2.221541352661254720e+01 2.808673065727658624e+01 4.212767180396276245e+01 2.114678528397160662e+01 2.114678528397160662e+01
3.381065769429181955e+02 2.220578414193922967e+01 2.810266995953232083e+01 4.214234053801946800e+01 2.105093759447303015e+01 2.105093759447303015e+01
3.381223337090549421e+02 2.220096057197525141e+01 2.812505991414774797e+01 4.214139525101653305e+01 2.095465149713538366e+01 2.095465149713538366e+01
3.381464463504200353e+02 2.220727984959886570e+01 2.811926287466299001e+01 4.212094082261695149e+01 2.091858365775269846e+01 2.091858365775269846e+01
3.380231381342666168e+02 2.221057364586515348e+01 2.809611141162421788e+01 4.206149409926375426e+01 2.090695733784326293e+01 2.090695733784326293e+01
3.375610036755689976e+02 2.220555353415896604e+01 2.808007642109259550e+01 4.195058176977286024e+01 2.090818765188408790e+01 2.090818765188408790e+01
3.374061158803993408e+02 2.220053228727634931e+01 2.807750003640638425e+01 4.186368404360035811e+01 2.092104284605330733e+01 2.092104284605330733e+01
3.375504893390283314e+02 2.221870468048035363e+01 2.807750003640638070e+01 4.181565686608784205e+01 2.088368528029472060e+01 2.088368528029472060e+01
3.379840424312033065e+02 2.230816039565790021e+01 2.803525013076217220e+01 4.174462476466160865e+01 2.078414937221146630e+01 2.078414937221146630e+01
3.385061901688320063e+02 2.238812018724215136e+01 2.804093862006762805e+01 4.167499874148047212e+01 2.074654530871099922e+01 2.074654530871099922e+01
3.389373396983835391e+02 2.245689549867477908e+01 2.809811313192400917e+01 4.167273476150081990e+01 2.074654530871099922e+01 2.074654530871099922e+01
3.389341778541335657e+02 2.250468590668173974e+01 2.812637913373138687e+01 4.166723536716107645e+01 2.075950059915696500e+01 2.075950059915696500e+01
3.387695025157628379e+02 2.260694251769574592e+01 2.820551591966366445e+01 4.164126406657702972e+01 2.075950059915696500e+01 2.075950059915696500e+01
3.383400458046571089e+02 2.267853024334689138e+01 2.825377832670172751e+01 4.139410047364719247e+01 2.075826147263778765e+01 2.075826147263778765e+01
3.378965127356858034e+02 2.268625770281206400e+01 2.826310678418776590e+01 4.122984569583542225e+01 2.080629648943795829e+01 2.080629648943795829e+01
3.374058361376362427e+02 2.268531054754154397e+01 2.828209775484132038e+01 4.102790575135902174e+01 2.084132445326827821e+01 2.084132445326827821e+01
3.368896254961518935e+02 2.263061554793416619e+01 2.826040554511559932e+01 4.078350373303400289e+01 2.087629364438042145e+01 2.087629364438042145e+01
3.366508728480255286e+02 2.250004785235799432e+01 2.824459871859397708e+01 4.072730662273652769e+01 2.087506145060172713e+01 2.087506145060172713e+01
3.366532287000043766e+02 2.240036992369544677e+01 2.825781110798217100e+01 4.078141899373289903e+01 2.087506145060172713e+01 2.087506145060172713e+01
3.366515011484390243e+02 2.239583934748594274e+01 2.831973308303594550e+01 4.082031985889378234e+01 2.087382918408594890e+01 2.087382918408594890e+01
3.366432903478360572e+02 2.245500649562140794e+01 2.840223502146267265e+01 4.082449206178073808e+01 2.087136443279160147e+01 2.087136443279160147e+01
3.365608432020241025e+02 2.250550294124527184e+01 2.842522935658392669e+01 4.080862016513665935e+01 2.087013194798725380e+01 2.087013194798725380e+01
3.364531153119219198e+02 2.250078690709281659e+01 2.842485172897830026e+01 4.075366767816608160e+01 2.086889939039426878e+01 2.086889939039426878e+01
3.364690073029274231e+02 2.250078690709281659e+01 2.844060153467926710e+01 4.071534264257637403e+01 2.088054690103681565e+01 2.088054690103681565e+01
3.365762586154547193e+02 2.250401821005305436e+01 2.855654114584609005e+01 4.064667971215359188e+01 2.088054690103681565e+01 2.088054690103681565e+01
3.366570217558182208e+02 2.250854748753014434e+01 2.878028095996285884e+01 4.051832586598807495e+01 2.083268308803256730e+01 2.083268308803256730e+01
3.366792433816754624e+02 2.251620820116920640e+01 2.896749445524069699e+01 4.037358275435062893e+01 2.073662403011633870e+01 2.073662403011633870e+01
3.366577067860729358e+02 2.249745881290594696e+01 2.906670481176703191e+01 4.036449266697648142e+01 2.074958551505061877e+01 2.074958551505061877e+01
3.366794050063315922e+02 2.249398869561375847e+01 2.907275268106549149e+01 4.035855838186490985e+01 2.069893362679339788e+01 2.069893362679339788e+01
3.366910045589835363e+02 2.249527067626436860e+01 2.907567188655148982e+01 4.032829958357280731e+01 2.065992944437125800e+01 2.065992944437125800e+01
3.367070782427620088e+02 2.249781440581283576e+01 2.908116729387595711e+01 4.033944927068785091e+01 2.054622875387107328e+01 2.054622875387107328e+01
3.368086635102747550e+02 2.252383748295124732e+01 2.908445472300281409e+01 4.021001557351598876e+01 2.049507429228785327e+01 2.049507429228785327e+01
3.368924589535026257e+02 2.255743635962206639e+01 2.908581824557116846e+01 4.004556658336098707e+01 2.048195174699907284e+01 2.048195174699907284e+01
3.371418977234029057e+02 2.258721520326043830e+01 2.911952867706482095e+01 3.995466348478483098e+01 2.048195174699907284e+01 2.048195174699907284e+01