1.772674736900266224e+00 3.543600395931298053e+00 3.478439107645843631e+00 4.422679770636806396e+00
1.774260451430706320e+00 3.543600395931298053e+00 3.477013555567480818e+00 4.410762423164507062e+00
1.775404521842208094e+00 3.572549398684985444e+00 3.477013555567480818e+00 4.397783500082745434e+00
1.784866020044947987e+00 3.575192120624818504e+00 3.478439107645844075e+00 4.396753970101129561e+00
1.786003296799241191e+00 3.569717461188087082e+00 3.477013555567480818e+00 4.396753970101129561e+00
1.784672695345309368e+00 3.571428051360471478e+00 3.477086582988697661e+00 4.397448573161492291e+00
1.786247758900695537e+00 3.567785431615031477e+00 3.478585101100736043e+00 4.397448573161492291e+00
1.787821434831908363e+00 3.569528668145294681e+00 3.478585101100736043e+00 4.397448573161490515e+00
1.791627726262096543e+00 3.567536110451832609e+00 3.477086582988698105e+00 4.410069917087485969e+00
1.824175266481930402e+00 3.553556923146786506e+00 3.475587418782617899e+00 4.535626743196581323e+00
1.835991355147881476e+00 3.551555404708072849e+00 3.474087607646073828e+00 4.611922813057480752e+00
1.847731882474047405e+00 3.553306603626794846e+00 3.470907671719318799e+00 4.753013127859002651e+00
1.888017694879407626e+00 3.556151609916416767e+00 3.463083329289091683e+00 4.986468637583116426e+00
1.926212945006622101e+00 3.561647121680892702e+00 3.455241268797305754e+00 5.184254688342386785e+00
1.928499033664372586e+00 3.567134167093305663e+00 3.455241268797306642e+00 5.340876440585385687e+00
1.928499033664372586e+00 3.569968153832438151e+00 3.452043972141725092e+00 5.462344613222422929e+00
1.928499033664372586e+00 3.569968153832437707e+00 3.452043972141725536e+00 5.502608184633901445e+00
1.929746288033157953e+00 3.571710325046594914e+00 3.453553356414233999e+00 5.499603857879219682e+00
1.928499033664372586e+00 3.568067993472721522e+00 3.455062081294635767e+00 5.527779014541010838e+00
1.948697777879137227e+00 3.569779374047896248e+00 3.456570147646365943e+00 5.677255100275131028e+00
2.113481296229302142e+00 3.571521637347931932e+00 3.456570147646365943e+00 6.014174632782124164e+00
2.354091482825400927e+00 3.571521637347932376e+00 3.459738797308261837e+00 6.362331260913722808e+00
2.437211552063360820e+00 3.571521637347932376e+00 3.459738797308261837e+00 6.514375601206919164e+00
2.508673230250956010e+00 3.571521637347932376e+00 3.451660734429154775e+00 6.618728786829084498e+00
2.524394599934361771e+00 3.571521637347932376e+00 3.451660734429155220e+00 6.686511176510513188e+00
2.533403137319003129e+00 3.569530192155702331e+00 3.450224118169718857e+00 6.719581894255028942e+00
2.548971984188482587e+00 3.569530192155701886e+00 3.450224118169719301e+00 6.725813249979514019e+00
2.564287948504309078e+00 3.579135967340598690e+00 3.451734298233283038e+00 6.725813249979514019e+00
2.579512975255426888e+00 3.633088996897514633e+00 3.456391029035924323e+00 6.719581894255028054e+00
2.580602955934478970e+00 3.764514974430454242e+00 3.459584308208143444e+00 6.713344754561617833e+00
2.581535169140855235e+00 3.818437890819288416e+00 3.464230486789240171e+00 6.709627878921451405e+00
2.581377852267615847e+00 3.818437890819288416e+00 3.461594855785410374e+00 6.705908943133657374e+00
2.581535169140855235e+00 3.825183119718295277e+00 3.469276176034421066e+00 6.705908943133657374e+00
2.582467045839004882e+00 3.825183119718295277e+00 3.469202984202570228e+00 6.703899536359412714e+00
2.582467045839004882e+00 3.827041535273836281e+00 3.467749227611480300e+00 6.697647792591063798e+00
2.582467045839004882e+00 3.833742092618010577e+00 3.467749227611480300e+00 6.697647792591063798e+00
2.584317976342005441e+00 3.856598498596631508e+00 3.473885027688742522e+00 6.696548152115382457e+00
2.586167582126966291e+00 3.926945259703924052e+00 3.483181635459169367e+00 6.696548152115382457e+00
2.588172779429103620e+00 3.980229283937185780e+00 3.482057378275093207e+00 6.696548152115382457e+00
2.588015866034139911e+00 3.986672380910064817e+00 3.482057378275093207e+00 6.696548152115382457e+00
2.588015866034139911e+00 3.988232528248295328e+00 3.480932757983126180e+00 6.701042763152607940e+00
2.588172779429104065e+00 3.986672380910064817e+00 3.479807774231216566e+00 6.705534361525555376e+00
2.586324607658090358e+00 3.989208333246642812e+00 3.478382783076068296e+00 6.710022953284134672e+00
2.586481623656179618e+00 3.989208333246642812e+00 3.478382783076068741e+00 6.710022953284134672e+00
2.586638630122971350e+00 3.985111622783540142e+00 3.479807774231217010e+00 6.710022953284134672e+00
2.587725609393528359e+00 3.982740909563553977e+00 3.487820646994339580e+00 6.710478113636906272e+00
2.588655257627875184e+00 3.980368784343706334e+00 3.509743635310136334e+00 6.709380575999540852e+00
2.591442201331999318e+00 3.978805553518684146e+00 3.518801191542371143e+00 6.709380575999540852e+00
2.599929566259652436e+00 3.961342019153499372e+00 3.528945166136760569e+00 6.715402072370642017e+00
2.602548400352579616e+00 3.962996479859374421e+00 3.527468041754596939e+00 6.745819638383457217e+00
2.602548400352579616e+00 3.963220923194221701e+00 3.527468041754596495e+00 6.818716104487700491e+00
2.624143947305057623e+00 3.968152722957009271e+00 3.532024924260870336e+00 6.918480367363915029e+00
2.631457409151394256e+00 3.973078400859690440e+00 3.539696877643621953e+00 6.951506923941018101e+00
2.632360013912313779e+00 3.974643884179368758e+00 3.544238037378415918e+00 6.955003151228612346e+00
2.633262309286923841e+00 3.976208751148652798e+00 3.548773386058907686e+00 6.965590320539956082e+00
2.632348414662802671e+00 3.976432448738163927e+00 3.553302945936358537e+00 7.004727537427841710e+00
2.629759256949408375e+00 3.974867669836459783e+00 3.554721714227430773e+00 7.044289990737173213e+00
2.627167547539448034e+00 4.021140081209696682e+00 3.559243704159635868e+00 7.066938383317058481e+00
2.627012963331377460e+00 4.172822326201352183e+00 3.559243704159635868e+00 7.077358108333922537e+00
2.627012963331377460e+00 4.237923224809269307e+00 3.557850528844629157e+00 7.086723408854046724e+00
2.618326516978183527e+00 4.260071458639060005e+00 3.557850528844629157e+00 7.087987778883364065e+00
2.607778178739730723e+00 4.267758353754868672e+00 3.557850528844629157e+00 7.084038488997636662e+00
2.607778178739730723e+00 4.269215781933624498e+00 3.557850528844629157e+00 7.080086996188669879e+00
2.620926968875282093e+00 4.269215781933624498e+00 3.548892636527626543e+00 7.076133296765959813e+00
2.629604825097827447e+00 4.275457911465289307e+00 3.541312308396423525e+00 7.073426860694884688e+00
2.629759256949409263e+00 4.287292538737138337e+00 3.539912075970250260e+00 7.070719388690226204e+00
2.632348414662803560e+00 4.305267097332963644e+00 3.539912075970250260e+00 7.063749771445749559e+00
2.633262309286924729e+00 4.325351053888898178e+00 3.539959896044022614e+00 7.061038588876277444e+00
2.635231671569777223e+00 4.328356175198362799e+00 3.539959896044022170e+00 7.062158278713376980e+00
2.650202385261254623e+00 4.373075412800980999e+00 3.535413241136034834e+00 7.063277791054227706e+00
2.650049144735076023e+00 4.418750047171462469e+00 3.539959896044022170e+00 7.066736233481471174e+00
2.651711274412137609e+00 4.462563541961556801e+00 3.544500718803707873e+00 7.092253714694638056e+00
2.679040532761267190e+00 4.507331447694722826e+00 3.547074747675893480e+00 7.177942091825475934e+00
2.748056940733052844e+00 4.526518942783494204e+00 3.545652919505799971e+00 7.337242721458781425e+00
2.845917954341697698e+00 4.526715445667472970e+00 3.545652919505799971e+00 7.553392236181030839e+00
2.921695651987802567e+00 4.526715445667472970e+00 3.544182758493134244e+00 7.655304495158887335e+00
3.014712039788282727e+00 4.531033951838271179e+00 3.553104882437331469e+00 7.680881097478327035e+00
3.075424400443689255e+00 4.535348345979370421e+00 3.554206666135215631e+00 7.710592467093555058e+00
3.092811681331044671e+00 4.535348345979369533e+00 3.554206666135215631e+00 7.743412004639806945e+00
3.116274954093603888e+00 4.538360512275088965e+00 3.563151198812647191e+00 7.749038146350801348e+00
3.117046968341097735e+00 4.536989542936057163e+00 3.572073334297603875e+00 7.752922620122031816e+00
3.129713808456682234e+00 4.542863752382536369e+00 3.570685164726792760e+00 7.759273225863352330e+00
3.234760651039130241e+00 4.538556502462480324e+00 3.570685164726792760e+00 7.828152080382692724e+00
3.336623537277032980e+00 4.549510107624533894e+00 3.570685164726792760e+00 7.942764034868457834e+00
3.413749499134996146e+00 4.550877305096728165e+00 3.569296455269582058e+00 8.055745529347353440e+00
3.567720443482706560e+00 4.554293503136477739e+00 3.570756276421005460e+00 8.168439804124155046e+00
3.603289443852349727e+00 4.551437561113095498e+00 3.569659600802295607e+00 8.227477029661029562e+00
3.638399133709464106e+00 4.547138432689778575e+00 3.569659600802295163e+00 8.254376257089319324e+00
3.672518139212446187e+00 4.530098675089146987e+00 3.569659600802295607e+00 8.254376257089319324e+00
3.672407557653577737e+00 4.525779276475796031e+00 3.574162691540496262e+00 8.254376257089319324e+00
3.678291196037155597e+00 4.527227470101811591e+00 3.577250841861666864e+00 8.251353578268226130e+00
3.684165438220408983e+00 4.532893125371967535e+00 3.577250841861666864e+00 8.246275088402027720e+00
3.688183753942372078e+00 4.527227470101811591e+00 3.572751643425554846e+00 8.244219872953406636e+00
3.683614245481075855e+00 4.540950406325873878e+00 3.568246771959585839e+00 8.243326544156786895e+00
3.673496599904662485e+00 4.540950406325872990e+00 3.568246771959586283e+00 8.242433118539686632e+00
3.718317790279781043e+00 4.545255387695809723e+00 3.563736205950155167e+00 8.243352863586506984e+00
3.725077408078627084e+00 4.549556295513272453e+00 3.563736205950155611e+00 8.247004510341913175e+00
3.734930252295364905e+00 4.548213595766047668e+00 3.563736205950155611e+00 8.245178889120591492e+00
3.734285979431380298e+00 4.527475161652218638e+00 3.563736205950155611e+00 8.239891515887807216e+00
3.735038982774403493e+00 4.520426726837978748e+00 3.565127081269335196e+00 8.239891515887807216e+00
3.739545653709523076e+00 4.520623494538976495e+00 3.581846348686666737e+00 8.236236715490871774e+00
3.762605096141649952e+00 4.520623494538976495e+00 3.603197300398634617e+00 8.232580292569267044e+00
3.801768190747270904e+00 4.526322431368662969e+00 3.629602609873428865e+00 8.265720636072808603e+00
3.964671485698544995e+00 4.526322431368662969e+00 3.674654278377764260e+00 8.345264489133935371e+00
4.219180500544835510e+00 4.527696630669703737e+00 3.710591810695432535e+00 8.363510461140100105e+00
4.526053514506623188e+00 4.550389238227625199e+00 3.722665398017931615e+00 8.358676327840424136e+00
4.669719259532035593e+00 4.654585808215855991e+00 3.722665398017931171e+00 8.390350516730505248e+00
4.685805765235162568e+00 4.687698463643374502e+00 3.722665398017931171e+00 8.640079566392884658e+00
4.701837234122185016e+00 4.694495759153598513e+00 3.722665398017931171e+00 8.927023640250981273e+00
4.703285851704574583e+00 4.695796631674379995e+00 3.722665398017931171e+00 9.021339024424248620e+00
4.711604006016537838e+00 4.701283226883675503e+00 3.782790936015365091e+00 9.023054003695195391e+00
4.754684964275876169e+00 4.697121249522000497e+00 3.874901483341222086e+00 9.096337049252291251e+00
4.796877494389216068e+00 4.713367382885027546e+00 3.930378758542235396e+00 9.215127321616337852e+00
4.908619009067393790e+00 4.714757956959308771e+00 3.953538878726248651e+00 9.213288231331954847e+00
5.183711436430250785e+00 4.717515027290439811e+00 3.976564113100656161e+00 9.213288231331954847e+00
5.459229610135277966e+00 4.760584376528206541e+00 3.995433061083617510e+00 9.223518870452853236e+00
5.670516772703447117e+00 4.918427215351582227e+00 3.995433061083617954e+00 9.221681453704626108e+00
5.683771474661677203e+00 4.936263750994043242e+00 3.994128458825530803e+00 9.216829782175640418e+00
5.687574793311391375e+00 4.962730536647923074e+00 3.994128458825530803e+00 9.219480412344280396e+00
5.687574793311391375e+00 5.024475293936450093e+00 3.994128458825530803e+00 9.248778507111079961e+00
5.687574793311391375e+00 5.041936684057470863e+00 3.995369508018002058e+00 9.299515507465960340e+00
5.736402588397869096e+00 5.048433228178597965e+00 4.000590404627798691e+00 9.346756470220023871e+00
5.740171034865695354e+00 5.044557672651896141e+00 4.007302043220602350e+00 9.384588823896329757e+00
5.752065158663548061e+00 5.044557672651896141e+00 4.007302043220602350e+00 9.406324537969116051e+00
5.782706530352182739e+00 5.039444824519639710e+00 4.007302043220602350e+00 9.406324537969116051e+00
5.813186393265267427e+00 5.035562351188903385e+00 4.007302043220602350e+00 9.406324537969116051e+00
5.835014094485500458e+00 5.036797615487223823e+00 4.006324867706063664e+00 9.409200273859617880e+00
5.846715279782695340e+00 5.035562351188903385e+00 4.007625499669350333e+00 9.417028696653733988e+00
5.858393093916150818e+00 5.035562351188903385e+00 4.012935910975904186e+00 9.419622992115973759e+00
5.858462413993775542e+00 5.039444824519639710e+00 4.019213582978641064e+00 9.420574260287953194e+00
5.858873105769667688e+00 5.058613204496970717e+00 4.019213582978641064e+00 9.424463971685600683e+00
5.858873105769666800e+00 5.063882355733702489e+00 4.023213529704831259e+00 9.443144901652198442e+00
5.859283768759150135e+00 5.063882355733702489e+00 4.019213582978641952e+00 9.610444495110510132e+00
5.863042499377869810e+00 5.062477999890742986e+00 4.015209651512609668e+00 9.878169022323920245e+00
5.873139284588589248e+00 5.061249003231426791e+00 4.012458586153882401e+00 9.998304753987044435e+00
5.874299063109098107e+00 5.061249003231426791e+00 4.019213582978641952e+00 1.005927953849578138e+01
5.874708647769501191e+00 5.066339847073471070e+00 4.028223636492890947e+00 1.006170823834600725e+01
5.875522534734911595e+00 5.082980855696564326e+00 4.037213581865593426e+00 1.011419239848639329e+01
5.888315783213772470e+00 5.091717717304359070e+00 4.045215769968273811e+00 1.028875606249851415e+01
5.999448333764621388e+00 5.136907747472641006e+00 4.045215769968273811e+00 1.038896805046583793e+01
6.012045428097752442e+00 5.140086544606466745e+00 4.045215769968273811e+00 1.039605871634053003e+01
6.012112976553619426e+00 5.142571557049817166e+00 4.053076864013315905e+00 1.039676707604820294e+01
6.011250025536376107e+00 5.143954046520158307e+00 4.067791074477646873e+00 1.040654192100334186e+01
6.010386950619547974e+00 5.159740911393818408e+00 4.082452251478271954e+00 1.042852782868224004e+01
6.010386950619547974e+00 5.159740911393818408e+00 4.099988847009222503e+00 1.043559161493012333e+01
6.016103593094489277e+00 5.160946453837491177e+00 4.106538034110973179e+00 1.043559161493012333e+01
6.037264951629815357e+00 5.155949022832212236e+00 4.106538034110973179e+00 1.044562252590049845e+01
6.041895979699674513e+00 5.135932718216277060e+00 4.106538034110972291e+00 1.046682277836019992e+01
6.048373462029090319e+00 5.125884210492641202e+00 4.105584477951953026e+00 1.050111952286992612e+01
6.081992957590280469e+00 5.125884210492641202e+00 4.105584477951953026e+00 1.052220796000534975e+01
6.088427780867934125e+00 5.125884210492641202e+00 4.106791845906000660e+00 1.052245843677227022e+01
6.088361079100935491e+00 5.124496846134694472e+00 4.107745121791274379e+00 1.052513968903025621e+01
6.088361079100934603e+00 5.129698323102873658e+00 4.108698176503112975e+00 1.052443996959457806e+01
6.089084729484754988e+00 5.132881585040165007e+00 4.107429549681894443e+00 1.052417037649998832e+01
6.092240103840658172e+00 5.137230951207511609e+00 4.107429549681893555e+00 1.052417037649998832e+01
6.101496764142748219e+00 5.141036645727309562e+00 4.107429549681894443e+00 1.052417037649998832e+01
6.104645722959230802e+00 5.158557036553707675e+00 4.107429549681894443e+00 1.052460053178266186e+01
6.105428958135901141e+00 5.194874548954745208e+00 4.107429549681894443e+00 1.052460053178266186e+01
6.111905552513425377e+00 5.224882863699220614e+00 4.108382677599545119e+00 1.052460053178266186e+01
6.111516860500162629e+00 5.251927583219114126e+00 4.109589223462609020e+00 1.052417037649998832e+01
6.114272142251365061e+00 5.253281293887764214e+00 4.109589223462608132e+00 1.052417037649998655e+01
6.113423611707090366e+00 5.386614568790967006e+00 4.109589223462608132e+00 1.052460053178266186e+01
6.119043994190957569e+00 5.402905705208795872e+00 4.109589223462608132e+00 1.052746091484551094e+01
6.119043994190957569e+00 5.407839403992851679e+00 4.109589223462608132e+00 1.053032052093381843e+01
6.118196125453245315e+00 5.407839403992851679e+00 4.109589223462608132e+00 1.054102169780519382e+01
6.117414524904381423e+00 5.413732590925084409e+00 4.109589223462607244e+00 1.060281620106657741e+01
6.129702943550997318e+00 5.415476900456483556e+00 4.128211611049026786e+00 1.062524079508788688e+01
6.148282712230390246e+00 5.424825068090007640e+00 4.167877165368480519e+00 1.063148121540925573e+01
6.178668067054939428e+00 5.443779244181174093e+00 4.189522615477806688e+00 1.065225477885315541e+01
6.234560666920411443e+00 5.462667654120810568e+00 4.195871540645637943e+00 1.071182586273693538e+01
6.302474019212170653e+00 5.466246778736249645e+00 4.190792944730148406e+00 1.089247601758203920e+01
6.346508817939021441e+00 5.469234162663400234e+00 4.186953095700977734e+00 1.096566814898207021e+01
6.364455696248586314e+00 5.501138769931587902e+00 4.186953095700977734e+00 1.098735220667836288e+01
6.375890667416154400e+00 5.491920502524087588e+00 4.193427016844337274e+00 1.099116424923219348e+01
6.376263243429577621e+00 5.490300623770774990e+00 4.244743316809628020e+00 1.107402656460602230e+01
6.428101483552077333e+00 5.487931805277627362e+00 4.355393665973260831e+00 1.108320411585024701e+01
6.468838291597990953e+00 5.500368451238313305e+00 4.435629405800263214e+00 1.109237407382206264e+01
6.488089862934319996e+00 5.585659741938377110e+00 4.442914060118651420e+00 1.110153645733777950e+01
6.488889399800586766e+00 5.601372001516928378e+00 4.440542352641172918e+00 1.110153645733777950e+01
6.507716628960146465e+00 5.601372001516928378e+00 4.433368352122345257e+00 1.110424822640415776e+01
6.534021837748764661e+00 5.601213200076488263e+00 4.432249946201138435e+00 1.110424822640415776e+01
6.542290387128278262e+00 5.600102435317092286e+00 4.425062501886271704e+00 1.112591721134036860e+01
6.541927266703933874e+00 5.597324559052990978e+00 4.432249946201138435e+00 1.123373596421065379e+01
6.541196297531851833e+00 5.591624868739953236e+00 4.432249946201138435e+00 1.138041910799421608e+01
6.540403154967671107e+00 5.591624868739952348e+00 4.424177598786014798e+00 1.142169093758012011e+01
6.539672015438623198e+00 5.597324559052990978e+00 4.416977018912366937e+00 1.143567315524538230e+01
6.540102024905860567e+00 5.597165642779485140e+00 4.423056868908649797e+00 1.147412934359726755e+01
6.543407625198896405e+00 5.601928256655122063e+00 4.424177598786013910e+00 1.150542377983531139e+01
6.543837389191278220e+00 5.605418462468057861e+00 4.425062501886270816e+00 1.150740042379684880e+01
6.544630115561234973e+00 5.605418462468056973e+00 4.423884599037364751e+00 1.175357242176181316e+01
6.547933429933783245e+00 5.605418462468056973e+00 4.423884599037364751e+00 1.192053592224778491e+01
6.565329720294154292e+00 5.614450382662381500e+00 4.423884599037364751e+00 1.194924337828968319e+01
6.576415424036945900e+00 5.619040049039612406e+00 4.423884599037364751e+00 1.200442744463890854e+01
6.576415424036945900e+00 5.624711958792001809e+00 4.423884599037365639e+00 1.200920509749083465e+01
6.580239686833429857e+00 5.640315431431510262e+00 4.416568557783292270e+00 1.200945941970744357e+01
6.580605333061013695e+00 5.637892039232785812e+00 4.409240377389282983e+00 1.201007262066303483e+01
6.591665346696871097e+00 5.641359994957872992e+00 4.408058246620612408e+00 1.201620672398739309e+01
6.620015922652883411e+00 5.665260319353773610e+00 4.445189299186254495e+00 1.202949793938216949e+01
6.631373049591190671e+00 5.673100512010848639e+00 4.482050520197199184e+00 1.242724864938333162e+01
6.642771894536524613e+00 5.691227886790139578e+00 4.507994576926638963e+00 1.242688435423778515e+01
6.653371535508221690e+00 5.742848313573247765e+00 4.529165263666140362e+00 1.330163072234377886e+01
6.656681895372325464e+00 5.794008857953570235e+00 4.535094714071579602e+00 1.402008147885025302e+01
6.655963528759580861e+00 5.795638717119776295e+00 4.529221326629995659e+00 1.402700893111570934e+01
6.658493522525273711e+00 5.812313786497688817e+00 4.523340312821928499e+00 1.407776031738002942e+01
6.658798469407051002e+00 5.903060086038237841e+00 4.506351081041065854e+00 1.423867376526338724e+01
6.688635921933387074e+00 5.984843833610956843e+00 4.548293911523307642e+00 1.490778628346945034e+01
6.738488751654757358e+00 5.989298178644230752e+00 4.569463117872819780e+00 1.543881386226285990e+01
6.818484988337050190e+00 5.990336776791249207e+00 4.568606184122241842e+00 1.550335034350962005e+01
6.819131157963677303e+00 6.023761126797035459e+00 4.575568151126151228e+00 1.550495931608979916e+01
6.946890795373449556e+00 6.103927870317966686e+00 4.575512656041942350e+00 1.564645280290711327e+01
6.945851645611527125e+00 6.106020633717000656e+00 4.573517480626917653e+00 1.583003272370590686e+01
6.951140724814719007e+00 6.114166752118484816e+00 4.579444951694472188e+00 1.625764029721410253e+01
7.027747849027528027e+00 6.129539187087756247e+00 4.582955961560179148e+00 1.710584249294959136e+01
7.104149104303605355e+00 6.281941328871018193e+00 4.582955961560179148e+00 1.775042190015775034e+01
7.103132960615176295e+00 6.403357834192237696e+00 4.580545896025928876e+00 1.816438010265144953e+01
7.121007744426185226e+00 6.497339663229695361e+00 4.580545896025929764e+00 1.840977308370746357e+01
7.126561444075095508e+00 6.569835868526531897e+00 4.588453829515994009e+00 1.843890964763372153e+01
7.131383397549481806e+00 6.601823189042384854e+00 4.593092751687035680e+00 1.845782519891224638e+01
7.131383397549481806e+00 6.602816060291581302e+00 4.593129606880257398e+00 1.848659750721045469e+01
7.131383397549481806e+00 6.607643564290608396e+00 4.593166461777756560e+00 1.849999686577270452e+01
7.126846363072828261e+00 6.605036412166433557e+00 4.593166461777755671e+00 1.851162949158176829e+01
7.136727081058308997e+00 6.627389413088014436e+00 4.605079255083454726e+00 1.853678658758307662e+01
7.136727081058308997e+00 6.628814368048364436e+00 4.618034983150299588e+00 1.855535838601884535e+01
7.142268557644066540e+00 6.625863262955081545e+00 4.618034983150299588e+00 1.855932931206297454e+01
7.160045641580160769e+00 6.622910842878008353e+00 4.618034983150299588e+00 1.855893250468894351e+01
7.188524368940012010e+00 6.619957106057744234e+00 4.617187064176627942e+00 1.855853568883062366e+01
7.188580862463587628e+00 6.616061828059883965e+00 4.621797146738482631e+00 1.855813886448746075e+01
7.191644866290631377e+00 6.619017303148388542e+00 4.635696925554989356e+00 1.855905195945094377e+01
7.191644866290631377e+00 6.618077366781919046e+00 4.655349446131835656e+00 1.856130902370842861e+01
7.191588396836338326e+00 6.614180981752598498e+00 4.674919351774956766e+00 1.856265294061169158e+01
7.207097445540129321e+00 6.611223344639864052e+00 4.694407675692427340e+00 1.855999925521550153e+01
7.217197453502597781e+00 6.608264383788260865e+00 4.694407675692428228e+00 1.855734519034444219e+01
7.227283346886139270e+00 6.652906811766150064e+00 4.687513872576803742e+00 1.856000592331801968e+01
7.230274782434692682e+00 6.692355892562133590e+00 4.686401935984576994e+00 1.858403304865765548e+01
7.234085992681524857e+00 6.695277689489643080e+00 4.685289735501955377e+00 1.864380325238388636e+01
7.234085992681524857e+00 6.708391527485888517e+00 4.696914824179802217e+00 1.884024604599419561e+01
7.234418591901105700e+00 6.718718622330038137e+00 4.732642871123911910e+00 1.912631819126723443e+01
7.242547746213186421e+00 6.731786796439049425e+00 4.757220489487531623e+00 1.969126469969869575e+01
7.280568731642995672e+00 6.727973093934838111e+00 4.792498979196550657e+00 2.010511708082297844e+01
7.400746412097748639e+00 6.726073848790079523e+00 4.826708549891942646e+00 2.010878197488848329e+01
7.543174061550240950e+00 6.728981005029250007e+00 4.839070942402062592e+00 2.012016874764224994e+01
7.636427771511429263e+00 6.729905451988988929e+00 4.838046323217666256e+00 2.012338560067862758e+01
7.722391756628534942e+00 6.766670679591586079e+00 4.831462592797339362e+00 2.012622601168932235e+01
7.746605270450901415e+00 6.854198478259714733e+00 4.834843110753438644e+00 2.015902465977954705e+01
7.753580808214421971e+00 6.855106039008036944e+00 4.828255012486392772e+00 2.016283123456623727e+01
7.777082406844121110e+00 6.880587492797722859e+00 4.827228097531747864e+00 2.020760497717628823e+01
7.781501263221064058e+00 6.879214690116243425e+00 4.828307602628480133e+00 2.060610540673807023e+01
7.824342135680014465e+00 6.875336922123244321e+00 4.835000664488060096e+00 2.119758764844716836e+01
7.933218984509231575e+00 6.907841100713819849e+00 4.835000664488060984e+00 2.149866381042319574e+01
8.115927989834416323e+00 7.064721539644087223e+00 4.849764504138318166e+00 2.189803124743409057e+01
8.171561566973863933e+00 7.278162484632444418e+00 4.882505658532307002e+00 2.222497563088877470e+01
8.172146707129305909e+00 7.514675297889532146e+00 4.929410113350277456e+00 2.237471285969051138e+01
8.174792392237108629e+00 7.716600583550016879e+00 4.943892028109027059e+00 2.241319986154587340e+01
8.174792392237108629e+00 7.826404625755332134e+00 4.939582563901526946e+00 2.243478320540673110e+01
8.179286824015346014e+00 7.845391818091547620e+00 4.934087756171345873e+00 2.243665038533158196e+01
8.219762081888037031e+00 7.872988053213624937e+00 4.939582563901527834e+00 2.243960631102069669e+01
8.222392446008504052e+00 7.917570966277755140e+00 4.939582563901527834e+00 2.245165954208285086e+01
8.245186991381357799e+00 7.944133438333250474e+00 4.952453814585250136e+00 2.256600704496920784e+01
8.269929717729027630e+00 8.150685636970127490e+00 4.953244341398876038e+00 2.294403211716719682e+01
8.299682701736919910e+00 8.278156534280109113e+00 4.954245135800205091e+00 2.357095807033731916e+01
8.329280650182885992e+00 8.316067293661777882e+00 4.954245135800205091e+00 2.406746492744094112e+01
8.331876439484949159e+00 8.342213275027464903e+00 4.954296388550042174e+00 2.426871558928489847e+01
8.332742744309605598e+00 8.372631215616220146e+00 4.958593065134503597e+00 2.436241062361440157e+01
8.347412277037978612e+00 8.412520141196957013e+00 4.957541929787380397e+00 2.436364645026683817e+01
8.387411512668517588e+00 8.423699347636867785e+00 4.957541929787380397e+00 2.441038943797496685e+01
8.387459931122039691e+00 8.424899830425944813e+00 4.963958443178184687e+00 2.444383047301711187e+01
8.388078425331457311e+00 8.433336768210104140e+00 4.979386603347844442e+00 2.444554419998867445e+01
8.403268728467773840e+00 8.450119019637797990e+00 4.994767108244386300e+00 2.462935565283022044e+01
8.427499161841808473e+00 8.450224282982738089e+00 4.994767108244386300e+00 2.536063879703348078e+01
8.442570435764476855e+00 8.461458798145336857e+00 4.994817945190794362e+00 2.632745354100164192e+01
8.450661846438087821e+00 8.462968600086169246e+00 4.995861237624598772e+00 2.647218968566068398e+01
8.471500142016036961e+00 8.460933167173571690e+00 5.006900508857748733e+00 2.647959732083552353e+01
8.492287304932110814e+00 8.460828037060624141e+00 5.012315495417261957e+00 2.647887420933148306e+01
8.492003971747642765e+00 8.484630426406981840e+00 5.012315495417261069e+00 2.647981629304855744e+01
8.492003971747642765e+00 8.490704883540457715e+00 5.020115590860433130e+00 2.649339168686410062e+01
8.492003971747642765e+00 8.501781283514127097e+00 5.031101643338165452e+00 2.649339168686410062e+01
8.493748046819167286e+00 8.539961191522541739e+00 5.031101643338165452e+00 2.649914472041691837e+01
8.496293588158177812e+00 8.565423763366554866e+00 5.036490610097470011e+00 2.651689566509623930e+01
8.496013982422056188e+00 8.589983138868461765e+00 5.048473439129890217e+00 2.654179830896165626e+01
8.495403346291320545e+00 8.626523630797699127e+00 5.061268448284478971e+00 2.658459691538692127e+01
8.495966182617356921e+00 8.634556907723240471e+00 5.061268448284478971e+00 2.660943620059620685e+01
8.496815757457481411e+00 8.636062669568298489e+00 5.092699864079953898e+00 2.662711361964716872e+01
8.498797768479439796e+00 8.639150154541308524e+00 5.114578651814827737e+00 2.662711361964716872e+01
8.505156414954660349e+00 8.639150154541308524e+00 5.125279659257627074e+00 2.662739019343802838e+01
8.512780521242422793e+00 8.639150154541308524e+00 5.136923568206945845e+00 2.662953687080569054e+01
8.525607953464534816e+00 8.639253114672458267e+00 5.136923568206945845e+00 2.665405798210845845e+01
8.566529228894925296e+00 8.636268662220070169e+00 5.135958370703560760e+00 2.694109765309497462e+01
8.668850974389728847e+00 8.633180146738769878e+00 5.147578124283299417e+00 2.730037133874921551e+01
8.744718106539764335e+00 8.631184853736929341e+00 5.162457560658486599e+00 2.735925581505460968e+01
8.766108232059295347e+00 8.634274082942802409e+00 5.169900167856239293e+00 2.752209338610708755e+01
8.787492504852814079e+00 8.660178971555829719e+00 5.165779250568105496e+00 2.826604311667268732e+01
8.808778763039615711e+00 8.716130859085991389e+00 5.173347966800607267e+00 2.888543507087264928e+01
8.808732660425357963e+00 8.738424259520579440e+00 5.241076552159868562e+00 2.893961937057223111e+01
8.822880046193025905e+00 8.738424259520579440e+00 5.309660213761326020e+00 2.896243896970004172e+01
8.860415794015786162e+00 8.762498765727604777e+00 5.351986657830900995e+00 2.897091007258142170e+01
8.890013959654078590e+00 8.773232026608615897e+00 5.393980977497045082e+00 2.902820790668276274e+01
8.950801924009066823e+00 8.776169902984127802e+00 5.399972954154491411e+00 2.908528785543645867e+01
9.011179831900172132e+00 8.776916809034430500e+00 5.400937983869096293e+00 2.909120410078619656e+01
9.011980836799667216e+00 8.777625572976884172e+00 5.400937983869096293e+00 2.915235444134143350e+01
9.020371861672023428e+00 8.778701509489380328e+00 5.400937983869096293e+00 2.937225428518553016e+01
9.022768830917577532e+00 8.801543251387478506e+00 5.400019976407492983e+00 2.983641847195470120e+01
9.044811264817953500e+00 8.800836413624432808e+00 5.400019976407492095e+00 3.000591454552917980e+01
9.126242681566408166e+00 8.840640910743468694e+00 5.408323383970301101e+00 3.000837028886440194e+01
9.148602871268256109e+00 8.849182831164569052e+00 5.432804924309355243e+00 3.001762983637448912e+01
9.170908543296629745e+00 8.850626492667688083e+00 5.457176638665819368e+00 3.001787517119757354e+01
9.264016910759849566e+00 8.917723588789039368e+00 5.456268093266675834e+00 3.002136384965879046e+01
9.300074703078704985e+00 9.003665847829859459e+00 5.456268093266675834e+00 3.002171088851532588e+01
9.303770237355989181e+00 9.013421783431885714e+00 5.455550456700036577e+00 3.002392005640835393e+01
9.304284173944340708e+00 9.016281396417138438e+00 5.456505657066614390e+00 3.002612906176219099e+01
9.304025568332118468e+00 9.035670183189390414e+00 5.459452652565087050e+00 3.002722317420643350e+01
9.303723305726107284e+00 9.044212686908929655e+00 5.464419199292818163e+00 3.002703419310005728e+01
9.303978637990189426e+00 9.064583722343666494e+00 5.481101136231657733e+00 3.002639651296172474e+01
9.304233963247295236e+00 9.089262287962526443e+00 5.497732454894468823e+00 3.002658961976201368e+01
9.304233963247295236e+00 9.109923151123602736e+00 5.499740610756108872e+00 3.003110155344954890e+01
9.303975356239456929e+00 9.130537262361825057e+00 5.496815214794833260e+00 3.005284734386410861e+01
9.304233963247295236e+00 9.129868297300046009e+00 5.492939561437024665e+00 3.019606557208405562e+01
9.306557822104679190e+00 9.132874437950944113e+00 5.494857048695623192e+00 3.043833443855954357e+01
9.314683484487156662e+00 9.151348827688977394e+00 5.507852422278575411e+00 3.057998814181588187e+01
9.334811160534767893e+00 9.176568926313242613e+00 5.518689198133916562e+00 3.070038883977855804e+01
9.347022067812710944e+00 9.228294974662317074e+00 5.518689198133916562e+00 3.080140912155805566e+01
9.354558027124769026e+00 9.272342126599465217e+00 5.518689198133916562e+00 3.080238660937817485e+01
9.354858647222370038e+00 9.288374019495792666e+00 5.518689198133916562e+00 3.084256821267645421e+01
9.359043477630489605e+00 9.288374019495792666e+00 5.518765882477708828e+00 3.086150682830635716e+01
9.380848779801919335e+00 9.291902090496744648e+00 5.516856705190009258e+00 3.087601587306237860e+01
9.380295744600903873e+00 9.294771724974086879e+00 5.511083964666114277e+00 3.092323053294400026e+01
9.380512210047193378e+00 9.294771724974086879e+00 5.505305170978259888e+00 3.093165385610022611e+01
9.394097879848699151e+00 9.304891025300140228e+00 5.501512423470474644e+00 3.100336794146081232e+01
9.422318162896244687e+00 9.326419281770348846e+00 5.501512423470474644e+00 3.107491652689673600e+01
9.435843640935230425e+00 9.336504281191707832e+00 5.501512423470474644e+00 3.116909801251232892e+01
9.439992570062990751e+00 9.339252845528442037e+00 5.502224065375743045e+00 3.126299577253593753e+01
9.440459307479578399e+00 9.339954722555015465e+00 5.500565038757379455e+00 3.129134942238189865e+01
9.440710941599922634e+00 9.354634723282593711e+00 5.507152039448336645e+00 3.129752483046542721e+01
9.447957258732941455e+00 9.364689337045717821e+00 5.512075607754303164e+00 3.130507089711824875e+01
9.476669633869862608e+00 9.368188667651345725e+00 5.516994782089247096e+00 3.131601354760212530e+01
9.476669633869862608e+00 9.368188667651345725e+00 5.513164019471937571e+00 3.132309138053905428e+01
9.476455364894855293e+00 9.382161449938445585e+00 5.513164019471937571e+00 3.132309138053905428e+01
9.495042669529075496e+00 9.392186595572109553e+00 5.518082223526573848e+00 3.132554136473303075e+01
9.499208494194546049e+00 9.392943631225397993e+00 5.520996350804804997e+00 3.132568588289169753e+01
9.499208494194546049e+00 9.393605914985172944e+00 5.525907583881581431e+00 3.132631096624050215e+01
9.503372492761601009e+00 9.393511223146420619e+00 5.526850624505784459e+00 3.132866320853157660e+01
9.507534667629554903e+00 9.395344621994683010e+00 5.527793504247421552e+00 3.133361901909193747e+01
9.511149594178640143e+00 9.397426057847495073e+00 5.521323108241355193e+00 3.133597071280224711e+01
9.514089842763617355e+00 9.400263478898402525e+00 5.511278783150058480e+00 3.133832223003650697e+01
9.514047157905226371e+00 9.424817524283662706e+00 5.516464337381325578e+00 3.135197714265561686e+01
9.514805828961751644e+00 9.514181475708305413e+00 5.509980637497738698e+00 3.137825577105266817e+01
9.514556154449762104e+00 9.565789487162629001e+00 5.505101320193842795e+00 3.139614830697549408e+01
9.515101386191908261e+00 9.581237547382787767e+00 5.504200685440165941e+00 3.140396293262364935e+01
9.519215771069477583e+00 9.581237547382787767e+00 5.504200685440165941e+00 3.140390270067719314e+01
9.537762322622876709e+00 9.603847200265340334e+00 5.505147444492290099e+00 3.140548839731043174e+01
9.545691176800374933e+00 9.678158617184250190e+00 5.516699308970898663e+00 3.140760023232593667e+01
9.574821954280814396e+00 9.700542372777123390e+00 5.533070661540478774e+00 3.141284466509838680e+01
9.582677765783660817e+00 9.701183657302395957e+00 5.532128681222084232e+00 3.141990068529180391e+01
9.584934116423433181e+00 9.710879462028371378e+00 5.528277784771672643e+00 3.144092905805425175e+01
9.596826775008038268e+00 9.711520063960692895e+00 5.535228535986566278e+00 3.145927337040066263e+01
9.616071480054170451e+00 9.714802905843113123e+00 5.533233259641236579e+00 3.149515657801370949e+01
9.623893620368933810e+00 9.788181122458064820e+00 5.530325580433757438e+00 3.154777334826659896e+01
9.631709408139581541e+00 9.808648699627850576e+00 5.528674986432100091e+00 3.155010907926627794e+01
9.637567089408225485e+00 9.809951164304766991e+00 5.534521137876337704e+00 3.155106337151888241e+01
9.639810592339346229e+00 9.813291719875538277e+00 5.533813649338039653e+00 3.155129678275681115e+01
9.639810592339346229e+00 9.814593568391464018e+00 5.533813649338039653e+00 3.159735914334614648e+01
9.640306614220206072e+00 9.819754776607769742e+00 5.533813649338038765e+00 3.164111232990395806e+01
9.647435613131149168e+00 9.839932074598438660e+00 5.538667672428088551e+00 3.165871331108705178e+01
9.651535661723020354e+00 9.840835995959782423e+00 5.539562703463151827e+00 3.173045176661688416e+01
9.651040216966832119e+00 9.848059960860874540e+00 5.549444273582714082e+00 3.191552345354217124e+01
9.652785233436230072e+00 9.850767581905030212e+00 5.560934560449347863e+00 3.217251100976733369e+01
9.660082665770060473e+00 9.861218352349322203e+00 5.571668093632281327e+00 3.242189442018464973e+01
9.685566195264195599e+00 9.861218352349322203e+00 5.571668093632281327e+00 3.249208723418058042e+01
9.714277530325034604e+00 9.858603827083110005e+00 5.577469181053355207e+00 3.249444907970591601e+01
9.739330517178505175e+00 9.855267141620823068e+00 5.578403505089962522e+00 3.251530368109146707e+01
9.741303586422329630e+00 9.857792319752823218e+00 5.582921176731763246e+00 3.254256623982811192e+01
9.754098461134745435e+00 9.859776131639318208e+00 5.600150532405355541e+00 3.255743520171084526e+01
9.774734849405270154e+00 9.861680829320006225e+00 5.610000818680865642e+00 3.264734017762550167e+01
9.787486020569557965e+00 9.863663859136947210e+00 5.607132948807258543e+00 3.271529358134510801e+01
9.787444528042609448e+00 9.865646490357894649e+00 5.612018794123909693e+00 3.274579870019358907e+01
9.788140518820613423e+00 9.867222797696305392e+00 5.635525422318666600e+00 3.294429567426810479e+01
9.795825259917846140e+00 9.874145195376543782e+00 5.646750618329091864e+00 3.307521865133472261e+01
9.843497182887350760e+00 9.895783332614168870e+00 5.674895444464151062e+00 3.307744652347880532e+01
9.886894409073956780e+00 9.964876572209897532e+00 5.694493247480409082e+00 3.317972594994720481e+01
9.988026425818292253e+00 9.988042700785326744e+00 5.711952988742114101e+00 3.340301544761491215e+01
1.019449155783869898e+01 9.986763462672865188e+00 5.725365880500562277e+00 3.354831037941553973e+01
1.043349860862490530e+01 9.977335760915554630e+00 5.730922779587941385e+00 3.411677589505784880e+01
1.064673379599793002e+01 9.970485007563290480e+00 5.744291377150012146e+00 3.413397602907695472e+01
1.070811292881139920e+01 9.972446401596302579e+00 5.754682926591176084e+00 3.413600446498681862e+01
1.070762844531152425e+01 9.981967831680837122e+00 5.760299706230568972e+00 3.421105962512123000e+01
1.072363616392209806e+01 9.983247684298149238e+00 5.760387867635301085e+00 3.450911415428684137e+01
1.093024238292596984e+01 1.000494889705644930e+01 5.771604857022003543e+00 3.505839936610911423e+01
1.126874675978557327e+01 1.009903652068079083e+01 5.833283814936487843e+00 3.523673145843127941e+01
1.149104185309196424e+01 1.014574197875038131e+01 5.834177171255598537e+00 3.529970052725094121e+01
1.163148977286133601e+01 1.015318597121338939e+01 5.849660070944292301e+00 3.581405499121260050e+01
1.169533293082520764e+01 1.015479462352855045e+01 5.861868922587742503e+00 3.611586987286337092e+01
1.174140140824387402e+01 1.017454752111255800e+01 5.860979787168693278e+00 3.611770628865571098e+01
1.178728983677664033e+01 1.022221378140327452e+01 5.865606361289510851e+00 3.615687944767358175e+01
1.179806997505006549e+01 1.030466488438016626e+01 5.870229289014184282e+00 3.615825670622963628e+01
1.180386145361668859e+01 1.034352825326273084e+01 5.885761156010323347e+00 3.616799080117114329e+01
1.182629855827727638e+01 1.035288076524489398e+01 5.919715431133490746e+00 3.620731295240783254e+01
1.184962112430229553e+01 1.041902857560999784e+01 5.918173439972841621e+00 3.626252671220802171e+01
1.187289787665636531e+01 1.042090554635461430e+01 5.945033441924441497e+00 3.636411752969677735e+01
1.187471906374397257e+01 1.045763601486386030e+01 5.961102708861840682e+00 3.645253114549934992e+01
1.187657416553743239e+01 1.052524599139505490e+01 5.961102708861840682e+00 3.646002998179788079e+01
1.187657416553743417e+01 1.057006834569725129e+01 5.961102708861840682e+00 3.646125675115437303e+01
1.187681094975321550e+01 1.057837976154088011e+01 5.960445854598459547e+00 3.646104882136003766e+01
1.187704772924839780e+01 1.058493180985960258e+01 5.960488455286190757e+00 3.646224408718695287e+01
1.188297930274690017e+01 1.059465841164205102e+01 5.956020851676055550e+00 3.646974092632959952e+01
1.189832729936626521e+01 1.064102749829064543e+01 5.956063484013577991e+00 3.646961679252471100e+01
1.190424826981994677e+01 1.068719540288179104e+01 5.955231050563861928e+00 3.671222877943534257e+01
1.190566303751473143e+01 1.070596604668214979e+01 5.955231050563861928e+00 3.704765327026261446e+01
1.190609877063758582e+01 1.070654711003401438e+01 5.956063484013577991e+00 3.711836119919090038e+01
1.190653448781429269e+01 1.070952494586218151e+01 5.968927855620299816e+00 3.712461345945032321e+01
1.190888334155828865e+01 1.071201482103363745e+01 5.968927855620299816e+00 3.714248692203580049e+01
1.194686711023066295e+01 1.072162613440910484e+01 5.973470822361147015e+00 3.714361476476946677e+01
1.199216997167364873e+01 1.072104588831601113e+01 5.982706483323409152e+00 3.714958232488758227e+01
1.200666304305701537e+01 1.072345014035646038e+01 5.987238995196363156e+00 3.717390216850526485e+01
1.200992389385452519e+01 1.074215743349744123e+01 5.991768078422257560e+00 3.724978242129207473e+01
1.200992389385452519e+01 1.076959508149576017e+01 5.991768078422257560e+00 3.727403688834360906e+01
1.201152399057579245e+01 1.078764569338668622e+01 5.996209047856816632e+00 3.727676454674681850e+01
1.201778707927730316e+01 1.078703801325357681e+01 6.008598284591835537e+00 3.728421902995422244e+01
1.203336050553534342e+01 1.078703801325357681e+01 6.013026823954800371e+00 3.732867669813116152e+01
1.204891380289157432e+01 1.078646128592278330e+01 6.012160043245684093e+00 3.733802386460215672e+01
1.204951287270614735e+01 1.078646128592278330e+01 6.017452104138424573e+00 3.733883023172526094e+01
1.205276213057313051e+01 1.078884046562516374e+01 6.027372726619779186e+00 3.733902746287856900e+01
1.205843128504606909e+01 1.081418631641069616e+01 6.032651442409046716e+00 3.734162913898642699e+01
1.208615510475427435e+01 1.081418631641069616e+01 6.032693533207198477e+00 3.734082283230513610e+01
1.210767418745281354e+01 1.081772007923624379e+01 6.028279441565391750e+00 3.736276836683278191e+01
1.212453723829674423e+01 1.082490714999645220e+01 6.027456981646567513e+00 3.738044624925711190e+01
1.212899523357882359e+01 1.083606860963472407e+01 6.031913771399584512e+00 3.738109658789586831e+01
1.213523115956914111e+01 1.085369029621005588e+01 6.051216570707079967e+00 3.738109658789586831e+01
1.213704644313617287e+01 1.088362279785753728e+01 6.098028565495568820e+00 3.741914396072684212e+01
1.215246703909036796e+01 1.090782131527851462e+01 6.113695712545722749e+00 3.756426957247538212e+01
1.217536244017035862e+01 1.093760567976576503e+01 6.114336103421200264e+00 3.775948761137523491e+01
1.219821486787490805e+01 1.100048881729251349e+01 6.116966181498795230e+00 3.814348739213025397e+01
1.222102456327528230e+01 1.100669849770482500e+01 6.116966181498795230e+00 3.850508009956088529e+01
1.225600610487953723e+01 1.101077612187462051e+01 6.115473926491711509e+00 3.893966367848597088e+01
1.227870844413930129e+01 1.100991831544226329e+01 6.110183649089440117e+00 3.909043037104605389e+01
1.228046944988305889e+01 1.102726219177019118e+01 6.110183649089440117e+00 3.909636726082871405e+01
1.232454610886385105e+01 1.106254184561777443e+01 6.178634896609440652e+00 3.925654772841850360e+01
1.236846569585375377e+01 1.106081421382309493e+01 6.209210170834931652e+00 4.009352266131774911e+01
1.237163118493991298e+01 1.106026199958109757e+01 6.219563333997006005e+00 4.162596414395226674e+01
1.237205050707080822e+01 1.105175008430991923e+01 6.235060845380737682e+00 4.214346698070294650e+01
1.237524789527511082e+01 1.105255489887795051e+01 6.238475472869951410e+00 4.216367070967137920e+01
1.238135979565698186e+01 1.106220220537985632e+01 6.241888232386091140e+00 4.216531101692005734e+01
1.238158692640720204e+01 1.107094761283081397e+01 6.247066977838477086e+00 4.222148680699910273e+01
1.238713837452020528e+01 1.107968611736711750e+01 6.252241433725985509e+00 4.226873816751098190e+01
1.240362149224348087e+01 1.109246531927765922e+01 6.253074935229863129e+00 4.237014846178379202e+01
1.240639259694416729e+01 1.115359055040323355e+01 6.258163275722355756e+00 4.247503916459170625e+01
1.242243256007095731e+01 1.118950582075504130e+01 6.257371031479591394e+00 4.249443983056606555e+01
1.253390517022438999e+01 1.121450086418075642e+01 6.261745282714712424e+00 4.249528188627061098e+01
1.258649658812349514e+01 1.122288934303659147e+01 6.266826583335457279e+00 4.249933139466548226e+01
1.299966107005016092e+01 1.124915450597855404e+01 6.271903767246429950e+00 4.255179925354038062e+01
1.302106690519294574e+01 1.129283651078760720e+01 6.271903767246429950e+00 4.266406028349387469e+01
1.302687580617513419e+01 1.132885946742702643e+01 6.287110718414298915e+00 4.281072199383699939e+01
1.304823699519764091e+01 1.133113475367953882e+01 6.331355967373810678e+00 4.281206192691026757e+01
1.304823699519764091e+01 1.135143461033498369e+01 6.346393790618414243e+00 4.282004016478265385e+01
1.305381837533285605e+01 1.135995735581979638e+01 6.348053489503689306e+00 4.297185585791704199e+01
1.308981400388018201e+01 1.136769126395993190e+01 6.344697835641974315e+00 4.375882303025984754e+01
1.319210590174458808e+01 1.136831674814017035e+01 6.349016117919370927e+00 4.470671887080955287e+01
1.332958255471056930e+01 1.136886395875643174e+01 6.357737074274144362e+00 4.495147716052943565e+01
1.338293273649356152e+01 1.145175112923976535e+01 6.353428912453491506e+00 4.498835865280705804e+01
1.338858463578249314e+01 1.157503657270151187e+01 6.349157820183709333e+00 4.500134446917780195e+01
1.340383630021063510e+01 1.172472700944650015e+01 6.353428912453491506e+00 4.567855518242230772e+01
1.347210632935737529e+01 1.184577191206680702e+01 6.388231196943325862e+00 4.600433266067012283e+01
1.352691182850607987e+01 1.184793837394130556e+01 6.422844907484529742e+00 4.616553688839326952e+01
1.362897340776300048e+01 1.185293551401413836e+01 6.422072978844132862e+00 4.632562796243133363e+01
1.379174994514876751e+01 1.185183845904835032e+01 6.417114609043534479e+00 4.655886424424031844e+01
1.395299940954791218e+01 1.185183845904835032e+01 6.412152405050893123e+00 4.699675263200213493e+01
1.403701410757208556e+01 1.185348855004484392e+01 6.412152405050893123e+00 4.715102373303891881e+01
1.404606772360783395e+01 1.185513841136875612e+01 6.407186357957754375e+00 4.718019918264015899e+01
1.405939462670818862e+01 1.186113563896999956e+01 6.405541980628958854e+00 4.721035330553669240e+01
1.407884971589811407e+01 1.188606535090751670e+01 6.410588521001793438e+00 4.723125134096702027e+01
1.408422235137050293e+01 1.195704868739401405e+01 6.466175270250564822e+00 4.723036438768601641e+01
1.408439318736088630e+01 1.199822785495331345e+01 6.568665720342295344e+00 4.723036438768601641e+01
1.408717310047847882e+01 1.202279932264990059e+01 6.638283530070101079e+00 4.724965168669076832e+01
1.409920035142103600e+01 1.203516792429770099e+01 6.700758350037700595e+00 4.728051834438365830e+01
1.411212310377774948e+01 1.207549188643583093e+01 6.735212951763290157e+00 4.731136486420149367e+01
1.412064614348476255e+01 1.207549188643582916e+01 6.748754402524955509e+00 4.732371324266090795e+01
1.412169508013035113e+01 1.215304893786099427e+01 6.759764521460786213e+00 4.734112693582187603e+01
1.412155129118295882e+01 1.216079002611991378e+01 6.840611217252445364e+00 4.740907384408178160e+01
1.412350302118816003e+01 1.216852618983543621e+01 6.881298498510290962e+00 4.763557300204962530e+01
1.414323673054289721e+01 1.216859928748488073e+01 6.898224935851249739e+00 4.804966549928937525e+01
1.421864790534521106e+01 1.219282742077123416e+01 6.909335336021835694e+00 4.859114150741469729e+01
1.433432500780943819e+01 1.224897048106673481e+01 6.910052832330587869e+00 4.907524098232834575e+01
1.444749927298300207e+01 1.231843994367972783e+01 6.913134066803563904e+00 4.920791158374433394e+01
1.458864182630369832e+01 1.238694580728885342e+01 6.913134066803563904e+00 4.926479840894104001e+01
1.471041361721386309e+01 1.241081936508266637e+01 6.912416890321356533e+00 4.926489439624933908e+01
1.477668165329565220e+01 1.244835566247115111e+01 6.920338435770318597e+00 4.942802382003147699e+01
1.481429843865415741e+01 1.255774310851187892e+01 6.920338435770318597e+00 4.947604559818417158e+01
1.482808373468548879e+01 1.255569010473117153e+01 6.916454148304604921e+00 4.960271862099494911e+01
1.488982500332058834e+01 1.261050713569353654e+01 6.957446973251033562e+00 5.001456617620110023e+01
1.490761822032092176e+01 1.261520221027171118e+01 6.998175492626629968e+00 5.073293226015621826e+01
1.491469566086340492e+01 1.261921803306545087e+01 6.998895974766304207e+00 5.099401119850838882e+01
1.499332248667756318e+01 1.261872504413094731e+01 7.066551706851083914e+00 5.116765816679124868e+01
1.519570409785315235e+01 1.263361518407845097e+01 7.146462793970173699e+00 5.131258851737650417e+01
1.525579995289805879e+01 1.272007289206227831e+01 7.270944845451654537e+00 5.134713843042861470e+01
1.527753867402003074e+01 1.278193368284748033e+01 7.319289117503145370e+00 5.135656330434893135e+01
1.535868275741264277e+01 1.278950319934454249e+01 7.319289117503145370e+00 5.135768027504356326e+01
1.537549036582284323e+01 1.278901677453656482e+01 7.319824035152755926e+00 5.135762502952798059e+01
1.544024799594157216e+01 1.278846077704601214e+01 7.319824035152755926e+00 5.135782789364829881e+01
1.559923858450077461e+01 1.278790475538158589e+01 7.358570126430811875e+00 5.135797128736297168e+01
1.563502840130170846e+01 1.282433653876010915e+01 7.422731717204924529e+00 5.135855753147277625e+01
1.563753265755751443e+01 1.304785286982923331e+01 7.486343432250484042e+00 5.135999232275642612e+01
1.567201717338404521e+01 1.321444466556872221e+01 7.501243954545136816e+00 5.136251737477047641e+01
1.570642597631654347e+01 1.324051796290629568e+01 7.501904839812350012e+00 5.136193117585824552e+01
1.575361110231061978e+01 1.326425329797011088e+01 7.512122452782565851e+00 5.136178356904672881e+01
1.577438449774964901e+01 1.332763843769946632e+01 7.516358505659503031e+00 5.137782864109380654e+01
1.578107128396266745e+01 1.335202600679178886e+01 7.516358505659503031e+00 5.139740171519956391e+01
1.578094261452225311e+01 1.335278341542981906e+01 7.517018062077538865e+00 5.142809508618415748e+01
1.578253668804578069e+01 1.335232599085433769e+01 7.516324723267346464e+00 5.145575688718997753e+01
1.578235850191106415e+01 1.335183503715416542e+01 7.515631320494637002e+00 5.152740161306020639e+01
1.578468695211209294e+01 1.335841578953298736e+01 7.515631320494636114e+00 5.155743361682774406e+01
1.578425537519939859e+01 1.336086916856001494e+01 7.515631320494636114e+00 5.155834626550389288e+01
1.578067946792884690e+01 1.337516486151520034e+01 7.519932929594514981e+00 5.157805674386734296e+01
1.578105580549595999e+01 1.337569647106438531e+01 7.549359585130380523e+00 5.157239902150761424e+01
1.578216677105875299e+01 1.337569647106438531e+01 7.575861439176402534e+00 5.157725567916152443e+01
1.579031687721447952e+01 1.339539386229625784e+01 7.597007499377629536e+00 5.158973910724495937e+01
1.578598219316253015e+01 1.339340284491003708e+01 7.625453339021881050e+00 5.157166793534604921e+01
1.580536038826209300e+01 1.339916740819036711e+01 7.678463923572210525e+00 5.166105278092578601e+01
1.581257534800001352e+01 1.339987226528836217e+01 7.717377050889761669e+00 5.166421911878277484e+01
1.581505149036336455e+01 1.340231805544763333e+01 7.762941632242249312e+00 5.166923037508493621e+01
1.581520169929903652e+01 1.345295226208895478e+01 7.790781633802859929e+00 5.167121673382193592e+01
1.581656895925422823e+01 1.360306986453343292e+01 7.794262786537284882e+00 5.182592390101309121e+01
1.581885068021202478e+01 1.366325883550642217e+01 7.797677258363541419e+00 5.201568663733662135e+01
1.581532371813840143e+01 1.366469018868378704e+01 7.809935563472977016e+00 5.214162580389682944e+01
1.582277670836709937e+01 1.367112034543539600e+01 7.842203929100540982e+00 5.223012725117180821e+01
1.604886260693191957e+01 1.367437115309917850e+01 7.883467647272992096e+00 5.226975192014594285e+01
1.642916695441913433e+01 1.371032843489575015e+01 7.915436254913557512e+00 5.225858621923865854e+01
1.648782553652374006e+01 1.372451191042426899e+01 7.932183723641299977e+00 5.238238702802307500e+01
1.650641790787786434e+01 1.372645490064268614e+01 7.936195566239529597e+00 5.280712213663608168e+01
1.665659313193560465e+01 1.375898062428236912e+01 7.936195566239529597e+00 5.293717055258620974e+01
1.679368874913562593e+01 1.383788562579959347e+01 7.943064208830239892e+00 5.316988129264161245e+01
1.679892617806798327e+01 1.382429266590920314e+01 7.955055925988199661e+00 5.378390671895823516e+01
1.680992764101552339e+01 1.379610067347694446e+01 7.950989728681578939e+00 5.407454118782332131e+01
1.682191047065833089e+01 1.383123404012494717e+01 7.948966497954306654e+00 5.407422780912919080e+01
1.686614188612334786e+01 1.388101477868402789e+01 7.952137548206769324e+00 5.408696560941093168e+01
1.687367759449149673e+01 1.389573554078292439e+01 7.952137548206770212e+00 5.409329985750176206e+01
1.687367759449149673e+01 1.389759058947668890e+01 7.961154674141181609e+00 5.409400061997263975e+01
1.687393871555120128e+01 1.389759058947668890e+01 7.961756121962037192e+00 5.417369883655351970e+01
1.687391464844018785e+01 1.389574368908375490e+01 7.965098793210287909e+00 5.417869258697187007e+01
1.687526470674887946e+01 1.389014562844384670e+01 7.972052046092021449e+00 5.419967219562863647e+01
1.687943995722343260e+01 1.387739751896506490e+01 7.967994522186870654e+00 5.440173759020570543e+01
1.689564811786882714e+01 1.386361972091143180e+01 7.967994522186870654e+00 5.445478742327069455e+01
1.691214749668151995e+01 1.386176829434269386e+01 7.968648562058686657e+00 5.447566070268079130e+01
1.691659630824645788e+01 1.387695738719566485e+01 7.976718437151958163e+00 5.448020930240264903e+01
1.691673854114648989e+01 1.388240077914158910e+01 7.981262109816966266e+00 5.448100924499838982e+01
1.691905308745668890e+01 1.388167226739551374e+01 7.988829154863682724e+00 5.450318471900151707e+01
1.692136731717754117e+01 1.388212040597704622e+01 7.996389039160112233e+00 5.460414839802558618e+01
1.693341337955358483e+01 1.388397727379937940e+01 8.007829792496840682e+00 5.461397867097397096e+01
1.694530888681321557e+01 1.390659116556046371e+01 8.001016749488778501e+00 5.468254062453206643e+01
1.694556890407767824e+01 1.394077790964493957e+01 7.992044598574258529e+00 5.490829736964715124e+01
1.695189674312320349e+01 1.398990800753806596e+01 8.000027394053097041e+00 5.490920429831049887e+01
1.695505977703541944e+01 1.402785275393366682e+01 7.996047577747395607e+00 5.524756629457627355e+01
1.695593337063787232e+01 1.405595961597942178e+01 7.996047577747395607e+00 5.552441962842656409e+01
1.696683302886873435e+01 1.409094319362775494e+01 8.007351406401493676e+00 5.562155647618646981e+01
1.696334062980650970e+01 1.409094319362775494e+01 8.008666899403419137e+00 5.565192371188619802e+01
1.696334062980650970e+01 1.408955514341661797e+01 8.012088401010062810e+00 5.564869312709510041e+01
1.696652726565391234e+01 1.409447505866669914e+01 8.013403116379457458e+00 5.570103579821116568e+01
1.705244286828657252e+01 1.416097882796398721e+01 8.011395647800700459e+00 5.571831086055643567e+01
1.712125522003310962e+01 1.426129836747146662e+01 8.009387676071122897e+00 5.572967446409140280e+01
1.713316074486873575e+01 1.438305888581114722e+01 8.016278073120966852e+00 5.572879758431542996e+01
1.713442283716741699e+01 1.443364649073052597e+01 8.014271324680741770e+00 5.573033323885298529e+01
1.715069251049388299e+01 1.438441861388139742e+01 8.014271324680741770e+00 5.574940716199232327e+01
1.716664456563496088e+01 1.436846709636687791e+01 8.021722821539023940e+00 5.576442668542016889e+01
1.718258181113006344e+01 1.436185406343406790e+01 8.033639269073512779e+00 5.588715678466387260e+01
1.718486055232466470e+01 1.436618579046102617e+01 8.033151883638202762e+00 5.606171987687856983e+01
1.721887230655686452e+01 1.438522996894306338e+01 8.033151883638202762e+00 5.612940035768778557e+01
1.725979452454492602e+01 1.440029893321816701e+01 8.033151883638202762e+00 5.613849654732126737e+01
1.726556207453180392e+01 1.441356373348997977e+01 8.033183492588724661e+00 5.620466315630405063e+01
1.727292352757664773e+01 1.441093456624902380e+01 8.045188170925525739e+00 5.623007890758825766e+01
1.727280597131931827e+01 1.441093456624902380e+01 8.049206782385454062e+00 5.632934167442045492e+01
1.727702264906131546e+01 1.443792606272489998e+01 8.049185751714267312e+00 5.641508845010881856e+01
1.728110083191589297e+01 1.449507008719553980e+01 8.052555196060438902e+00 5.642578471898819004e+01
1.727897403405395593e+01 1.455712736792682804e+01 8.055923231113860439e+00 5.650131261372253277e+01
1.728335191996942655e+01 1.459042943597083664e+01 8.057293822717399578e+00 5.657644756215788817e+01
1.728295776662212901e+01 1.457843015163307321e+01 8.057293822717399578e+00 5.657859595601150460e+01
1.728086936362995019e+01 1.456459004867779683e+01 8.059289858641390580e+00 5.664672520131770028e+01
1.728183161558724734e+01 1.456459004867779683e+01 8.063280448155078162e+00 5.673615507481628129e+01
1.729708690664926962e+01 1.460146746527134631e+01 8.090086975156692617e+00 5.673830972767520109e+01
1.728625806094282780e+01 1.463472204972513246e+01 8.134204614195535754e+00 5.674561057380211082e+01
1.727139169810907049e+01 1.463383353850627167e+01 8.157515684667725253e+00 5.674532260859569988e+01
1.726068436156315755e+01 1.465867820437360081e+01 8.161478987634529503e+00 5.674095559041636250e+01
1.726068436156315755e+01 1.470698809611871738e+01 8.175755470022323834e+00 5.673600372985043094e+01
1.729453764216255252e+01 1.472997476098916003e+01 8.311474453164128917e+00 5.674460267579289052e+01
1.729874902267533443e+01 1.473696583084108447e+01 8.506917490231108658e+00 5.674507944583038466e+01
1.729662439484009440e+01 1.474883613507783409e+01 8.579492902590452275e+00 5.674910874254856452e+01
1.727955329330528400e+01 1.476311259251847829e+01 8.598649162839471671e+00 5.699604507010641186e+01
1.727200656755059072e+01 1.480640005333428988e+01 8.612200976846741796e+00 5.752574537816612832e+01
1.725892038926085803e+01 1.482967466420097580e+01 8.612200976846741796e+00 5.784369929278037858e+01
1.724175192150855906e+01 1.482752430783297193e+01 8.611595814110179603e+00 5.791199333362305879e+01
1.729256876511345453e+01 1.483360812499926951e+01 8.623151167966380370e+00 5.794284052990155232e+01
1.729604694227877104e+01 1.484671853955314269e+01 8.627295533688409179e+00 5.801343087694092304e+01
1.729304727617945048e+01 1.486179875629834335e+01 8.637773318720512350e+00 5.801452523664742955e+01
1.729742160023214126e+01 1.487132827533273804e+01 8.646378334632366602e+00 5.819351326078880504e+01
1.729631051340653514e+01 1.487040931355660511e+01 8.642637397554057799e+00 5.871835969127204891e+01
1.729846218645395695e+01 1.486999857361720423e+01 8.640172955768880669e+00 5.892853219717594726e+01
1.734811515264729920e+01 1.488505520511689895e+01 8.639116551222119966e+00 5.894598658054339069e+01
1.738886579211471783e+01 1.489419705095615321e+01 8.639116551222119966e+00 5.896144162309467873e+01
1.738762216873957911e+01 1.492679949373087389e+01 8.640335858379579292e+00 5.896144162309467873e+01
1.749449868090473359e+01 1.493497805754590502e+01 8.639732666327121891e+00 5.896428351496863485e+01
1.762573569876855117e+01 1.493664448817217760e+01 8.639732666327123667e+00 5.897210536951857307e+01
1.762573569876855117e+01 1.493831073290119349e+01 8.639732666327123667e+00 5.899130353834878093e+01
1.762696252268601782e+01 1.496992549099842051e+01 8.639732666327121891e+00 5.899176215060542461e+01
1.762805276870299664e+01 1.508596768499491958e+01 8.639762056075385388e+00 5.901789850438256479e+01
1.764663184301310750e+01 1.511727365122574973e+01 8.632844040384371809e+00 5.902205607426432010e+01
1.764443229396110269e+01 1.511768516250788252e+01 8.623954354331889505e+00 5.904616038214171425e+01
1.763537804876447979e+01 1.511597984582467191e+01 8.612854685039099678e+00 5.904336313620355980e+01
1.759947102357087445e+01 1.514743732713153079e+01 8.600679567662080416e+00 5.904425276581626747e+01
1.759085588791832677e+01 1.520320102366749282e+01 8.592667975989762397e+00 5.904326834748904673e+01
1.758114170703496271e+01 1.520320102366749282e+01 8.594873955189802572e+00 5.912868979872293806e+01
1.755517175049879341e+01 1.517698446923425060e+01 8.591746750550786516e+00 5.917976716711211793e+01
1.755115725081523337e+01 1.518494698067939552e+01 8.592353311264615101e+00 5.919176853476842837e+01
1.755022246666722197e+01 1.518284694184123040e+01 8.592353311264615101e+00 5.919711394615114131e+01
1.754997140784501397e+01 1.518694450131573603e+01 8.603577808423656492e+00 5.919711394615114131e+01
1.754771693686040734e+01 1.521634867391136936e+01 8.597056579178714131e+00 5.921141027094019904e+01
1.753623007118436661e+01 1.521634867391136936e+01 8.557814958597782962e+00 5.921093844513530513e+01
1.752849789313136952e+01 1.521307726506083746e+01 8.535656688597542896e+00 5.919224368811848080e+01
1.752849789313136952e+01 1.521264636301141060e+01 8.524342756224667639e+00 5.940271837579154379e+01
1.750148347663261106e+01 1.522934800024974678e+01 8.515515029967357208e+00 5.964726133422725951e+01
1.744861332836636336e+01 1.522128404502647925e+01 8.511276458064322981e+00 5.985831150469918072e+01
1.768256242487244378e+01 1.524308850176731767e+01 8.508773969591622688e+00 6.016980180949246204e+01
1.797478777518233173e+01 1.529275767521054519e+01 8.512573734517662416e+00 6.027532020880190089e+01
1.806549847756336291e+01 1.529345563150169696e+01 8.519668889434610648e+00 6.036425061138092474e+01
1.820170414263943215e+01 1.527456197405927796e+01 8.519209309883162717e+00 6.040746442910513281e+01
1.827553756736522317e+01 1.530061133700363918e+01 8.518627348675369859e+00 6.046072174654882758e+01
1.827553756736522317e+01 1.541451922591309120e+01 8.516176714089484179e+00 6.046260314503174271e+01
1.828399993262353718e+01 1.546560626872990341e+01 8.513050427760894934e+00 6.049236886379638634e+01
1.832095034333219985e+01 1.546434160618262510e+01 8.512468045496556002e+00 6.056692188078903882e+01
1.843824270412387989e+01 1.547731968804819758e+01 8.523116785871231116e+00 6.086545817287176163e+01
1.853965488323638766e+01 1.552118616706568055e+01 8.534333168186016394e+00 6.123391523031662587e+01
1.856459653254488629e+01 1.553371627844984459e+01 8.538520643858628745e+00 6.153088344980594115e+01
1.859010654128097073e+01 1.557971230819248376e+01 8.541697062387541450e+00 6.163158966790977189e+01
1.859591353361030386e+01 1.585489954407504420e+01 8.539813781669947090e+00 6.163490308999927692e+01
1.859801910570525152e+01 1.612379252924213091e+01 8.548517405117683765e+00 6.169353369190001501e+01
1.859999507928727525e+01 1.622015170601201106e+01 8.561539865327963739e+00 6.170936913008917202e+01
1.859997324557692622e+01 1.624768614437281400e+01 8.559052072840774628e+00 6.170566373254243331e+01
1.860194901158238423e+01 1.626928133567606949e+01 8.560931121414304457e+00 6.169354978953312951e+01
1.860194901158238423e+01 1.627397920708733992e+01 8.562809757643805142e+00 6.165440925313941278e+01
1.860885220290361985e+01 1.627436147009699496e+01 8.560931121414304457e+00 6.164976855912439646e+01
1.861854759792443303e+01 1.628674871358239074e+01 8.557152829393661619e+00 6.163831873269746353e+01
1.864139873264640457e+01 1.630327751034673511e+01 8.553982150180111432e+00 6.164438911201573035e+01
1.866409461013787308e+01 1.635037147731036455e+01 8.553982150180111432e+00 6.172497827260535530e+01
1.870725752471958714e+01 1.647180767835488524e+01 8.561480548690159509e+00 6.169704737468077127e+01
1.872909954027451107e+01 1.654170538505761812e+01 8.617481102131872461e+00 6.179933701160233994e+01
1.876030322825773311e+01 1.659217449219292817e+01 8.673120079048828757e+00 6.185781175852895331e+01
1.878311000560993804e+01 1.660527490747175250e+01 8.710633037018604696e+00 6.187101592210687784e+01
1.878521621389661433e+01 1.662603148256906493e+01 8.710710771550159492e+00 6.187530301399422683e+01
1.879200398723290988e+01 1.670592760208317173e+01 8.703849147681729903e+00 6.187438267614152920e+01
1.882311199464222895e+01 1.680318079350983140e+01 8.695032056617156613e+00 6.189320516012725193e+01
1.902608896268955974e+01 1.683092345672228163e+01 8.720248624070300991e+00 6.191677216549327767e+01
1.924908801691249494e+01 1.683168253441638740e+01 8.739096350630308763e+00 6.192105608945637840e+01
1.936843990386192615e+01 1.687414090038495473e+01 8.750035880246432640e+00 6.193207063899610176e+01
1.938367142079928485e+01 1.691044893803959326e+01 8.761408648476566086e+00 6.193207063899610176e+01
1.937312800598234830e+01 1.695556091530772491e+01 8.761408648476566086e+00 6.194461173430343592e+01
1.937312800598234830e+01 1.705773594920237457e+01 8.760395848681723052e+00 6.201426722967548955e+01
1.937618606544756261e+01 1.712445626677562416e+01 8.764086520887385490e+00 6.216766305816555871e+01
1.954712435089905753e+01 1.713467268064117377e+01 8.764086520887385490e+00 6.234390841801308625e+01
1.958319594727865010e+01 1.714715114237282378e+01 8.764681154816754471e+00 6.244575320479049907e+01
1.959630858272830167e+01 1.714715114237282378e+01 8.775091351410534202e+00 6.244587113743872919e+01
1.960286161124214388e+01 1.715427115189424256e+01 8.824270607002029365e+00 6.244665991030747421e+01
1.960559696114464856e+01 1.715997018429940013e+01 8.853310453474449560e+00 6.247314138950916629e+01
1.960570052993544365e+01 1.714976884060086348e+01 8.853310453474449560e+00 6.248371545317709774e+01
1.960480623765961994e+01 1.716676111655052495e+01 8.853310453474449560e+00 6.249270269490352803e+01
1.960578649930110728e+01 1.727683537320162444e+01 8.856345299591698250e+00 6.251923708326584261e+01
1.960578649930110728e+01 1.739435932113370242e+01 8.867140178524300254e+00 6.253019659935192465e+01
1.960578649930110728e+01 1.744151492137970649e+01 8.880282269477698165e+00 6.258428858837977771e+01
1.963143032561588086e+01 1.747542458748030114e+01 8.891048085889535102e+00 6.272549524805366872e+01
1.965878938667157172e+01 1.747430538150355872e+01 8.901800882158619643e+00 6.288814634280138449e+01
1.966917967691698621e+01 1.748635681455815316e+01 8.920265013193272807e+00 6.296922620227758927e+01
1.967117036857519707e+01 1.754958030360586463e+01 8.928859693465900804e+00 6.306863353802429373e+01
1.971393586652627050e+01 1.768866435600431686e+01 8.923889568209590450e+00 6.312608260959650863e+01
1.971013596408823076e+01 1.771251115434260015e+01 8.909063541450356283e+00 6.318424256753896628e+01
1.970361861290570715e+01 1.770669494718624648e+01 8.905107338241350590e+00 6.318113849333203547e+01
1.968935389196009922e+01 1.770373908169432298e+01 8.901532186404763181e+00 6.318113849333203547e+01
1.967406073631413932e+01 1.771063533377739319e+01 8.933420714687066777e+00 6.315386561876955085e+01
1.967241351849956033e+01 1.773749178452365882e+01 8.943539866607626010e+00 6.314970681953798959e+01
1.968077048600598644e+01 1.772762277819686361e+01 8.943483083541890366e+00 6.315628245704146337e+01
1.967706892373736949e+01 1.773293052316445539e+01 8.939866472470377801e+00 6.316855203686090192e+01
1.967694819535906348e+01 1.772907688909317514e+01 8.914591574805879048e+00 6.318038316972764079e+01
1.966377939366805094e+01 1.777637535099261257e+01 8.860469038690895971e+00 6.324714175133610894e+01
1.966446091513429550e+01 1.781898456308264755e+01 8.820575794447888640e+00 6.329463262831693982e+01
1.971229972553965837e+01 1.783705932955441753e+01 8.820575794447888640e+00 6.330346335070146324e+01
1.974051362088072992e+01 1.783322819699350958e+01 8.823305878501548349e+00 6.330462741280137351e+01
1.973516844188341324e+01 1.787295946635711275e+01 8.823305878501548349e+00 6.330575790584615703e+01
1.972635436743218662e+01 1.793293663345124855e+01 8.831994913132593439e+00 6.330828208594514450e+01
1.972718603457787268e+01 1.793384746169593669e+01 8.864133603776513937e+00 6.330479003703909058e+01
1.972816021535825470e+01 1.798040939780602088e+01 8.869194474449187737e+00 6.329350954050188705e+01
1.972868613540979865e+01 1.801029402775102994e+01 8.869194474449187737e+00 6.328687247536888094e+01
1.972894909017822584e+01 1.801566691464342540e+01 8.901638711248621050e+00 6.334056892350749735e+01
1.972919145740251068e+01 1.806115684683692635e+01 8.971021403697575280e+00 6.337943041865873539e+01
1.973046654464893379e+01 1.807753848083428494e+01 8.985801719690902800e+00 6.338580098313504863e+01
1.973581299709179504e+01 1.807787634373511665e+01 8.993782558278802242e+00 6.338362551348419061e+01
1.973767506444238862e+01 1.817266647778226130e+01 8.993782558278802242e+00 6.340931226273948340e+01
1.973755470677267354e+01 1.831917633900000553e+01 9.000498380956468480e+00 6.339532627468371828e+01
1.973645907830254131e+01 1.835785591781833759e+01 9.010636136566608556e+00 6.337082778087724932e+01
1.973092137169923177e+01 1.836022201697765510e+01 9.020762499123897271e+00 6.337585055802883716e+01
1.972710725041841684e+01 1.836293276157282151e+01 9.059774296614678590e+00 6.336542095649333106e+01
1.972698528047754252e+01 1.836293276157282151e+01 9.109163767635314102e+00 6.336487459431766212e+01
1.972570996819914058e+01 1.835775871521478564e+01 9.148368269019343302e+00 6.338977357171742000e+01
1.972757298916529578e+01 1.837034395266941544e+01 9.187405478457995045e+00 6.342710945608040873e+01
1.974671541403390407e+01 1.837986785532958223e+01 9.211506842292415342e+00 6.343636288465476269e+01
1.974104122320242638e+01 1.837322279639705513e+01 9.194194502271528791e+00 6.347934593136262293e+01
1.974104122320242283e+01 1.838139119814868039e+01 9.186700521166452305e+00 6.342168762713275498e+01
1.975133429120281292e+01 1.840256004743301332e+01 9.226079092745736787e+00 6.348979392653282616e+01
1.976520499302188938e+01 1.839743318562069874e+01 9.339727194388494524e+00 6.359376502797742603e+01
1.980867571922744119e+01 1.839318036753598307e+01 9.458759651539940805e+00 6.356560549380147052e+01
1.984197417302129551e+01 1.845362820132428894e+01 9.523537379860488983e+00 6.356516524287185632e+01
1.984467656416141779e+01 1.848679211056850136e+01 9.531041314861665725e+00 6.355441836185431015e+01
1.984630640739423413e+01 1.846277685667510227e+01 9.531561462090039072e+00 6.362111978921468136e+01
1.985287458185448983e+01 1.845512557618373606e+01 9.511671890135824370e+00 6.364031119246357804e+01
1.985287458185448983e+01 1.849246322819230315e+01 9.539112322726888138e+00 6.356428571732404009e+01
1.983582463833667120e+01 1.850726190821802319e+01 9.545854651397116086e+00 6.357328725709883344e+01
1.983572227109911523e+01 1.849813378351208470e+01 9.542519561709054798e+00 6.359199111486921652e+01
1.979121835131710583e+01 1.847238324073835614e+01 9.542000011821420102e+00 6.372113739375345887e+01
1.979148047526622634e+01 1.847308712783846474e+01 9.545798660436954464e+00 6.415540341790085677e+01
1.980638666801302961e+01 1.846899680453826420e+01 9.579841981243738758e+00 6.456376242098662033e+01
1.982531884609957373e+01 1.846423758023541950e+01 9.637270388735595716e+00 6.477124260560086100e+01
1.980824518400130785e+01 1.842384586939919799e+01 9.645071474364508290e+00 6.471178372965471226e+01
1.981206418295456118e+01 1.844186421468044657e+01 9.642863229642944844e+00 6.468201917344266860e+01
1.980762348834856112e+01 1.843535087540722373e+01 9.644531121086185266e+00 6.467200998541490264e+01
1.983895004991051181e+01 1.845593471107269323e+01 9.641177491655257725e+00 6.466725067198701993e+01
1.984076919584632037e+01 1.844692643539056220e+01 9.648887698880111330e+00 6.466342657572056396e+01
1.984135353421008219e+01 1.845181692461145673e+01 9.665907315177397763e+00 6.465485497651049229e+01
1.984234565408479156e+01 1.846096795095112242e+01 9.666402693122190470e+00 6.467256304704186221e+01
1.984579437402739899e+01 1.847188891494436547e+01 9.666402693122190470e+00 6.475509718341564280e+01
1.984397568876200779e+01 1.846527697145946334e+01 9.663566939055161953e+00 6.488926432772684905e+01
1.987130318397640849e+01 1.846421776534398873e+01 9.660730352597568071e+00 6.489658825696159283e+01
1.989660480089113648e+01 1.849702053933852142e+01 9.660730352597568071e+00 6.489701947573250607e+01
1.990046346100623254e+01 1.853827207426241586e+01 9.710201756173757914e+00 6.491105761851061118e+01
1.991297969841557602e+01 1.858888446588564136e+01 9.759823567339726225e+00 6.494987744925776951e+01
1.992975986850262160e+01 1.861430007653733654e+01 9.765499019794122049e+00 6.495101200407583519e+01
1.994619511091888242e+01 1.861797048390016585e+01 9.759817624607538988e+00 6.496919369942652622e+01
1.994996734607630628e+01 1.865636403820542100e+01 9.749924327173003391e+00 6.500497802009937232e+01
1.996748930543958522e+01 1.867517414267877385e+01 9.743340588607171782e+00 6.500535389668763742e+01
1.997410048611728683e+01 1.867622138458538927e+01 9.739636366189445837e+00 6.500530691223296742e+01
1.997229348446268915e+01 1.868663604271007372e+01 9.785595065482731059e+00 6.501356451351981036e+01
1.996990575948830582e+01 1.869718733016754442e+01 9.822099990613002873e+00 6.504894880283310954e+01
1.997020315143316083e+01 1.874030538579110328e+01 9.825391867279389402e+00 6.510812642760966185e+01
1.997224517347789075e+01 1.876518498015348158e+01 9.847931977100570222e+00 6.515905859382563392e+01
1.997408519964917772e+01 1.878187562889760542e+01 9.864365714307227861e+00 6.513740255577897642e+01
1.998032834538789260e+01 1.880405345750514101e+01 9.847671906882354165e+00 6.505813646296365960e+01
1.997934307735978265e+01 1.880041937917107120e+01 9.835822474282460703e+00 6.489191567301432428e+01
1.996736008830855980e+01 1.880041937917107120e+01 9.818681381203889558e+00 6.484314869616991928e+01
1.993338233992191633e+01 1.881195197047286172e+01 9.801909768284950530e+00 6.493871849454377809e+01
1.988498947287067864e+01 1.883569803907935380e+01 9.799061403297763206e+00 6.501324574479883722e+01
1.984924434337096955e+01 1.884265149015333662e+01 9.806885943335933220e+00 6.509691653552880553e+01
1.981704933946636515e+01 1.882537816404700592e+01 9.812976310253681334e+00 6.511195261112665378e+01
1.980759666768058480e+01 1.880851460746908188e+01 9.827562289072501400e+00 6.510336719551149542e+01
1.980486716986957418e+01 1.885345288073366277e+01 9.844290198160551952e+00 6.510223529582991375e+01
1.979650104680566258e+01 1.887917793353419427e+01 9.854002861050931372e+00 6.508980047068513386e+01
1.980028437479735715e+01 1.887967820010123532e+01 9.853977092808767324e+00 6.497517677293076588e+01
1.978719765613221782e+01 1.888005481858331791e+01 9.851223813597981049e+00 6.479209383893687857e+01
1.974391981588705747e+01 1.886818642776011856e+01 9.856826762482940651e+00 6.469270338850898838e+01
1.966986706723876921e+01 1.881237178683337774e+01 9.871528006625922558e+00 6.456847006297735447e+01
1.964706345732556514e+01 1.877595369915230705e+01 9.864634403037953803e+00 6.449581926693856815e+01
1.965328961207709924e+01 1.872642181249204540e+01 9.842401840282683168e+00 6.445351238740681765e+01
1.966635551230012879e+01 1.866601118412942029e+01 9.835135467577453383e+00 6.444013893989991004e+01
1.968038928314624769e+01 1.862097259130264959e+01 9.841208351904757734e+00 6.443792928418481836e+01
1.969254689578887962e+01 1.865143238483426913e+01 9.898540121937172032e+00 6.444741670814745760e+01
1.969731148057633519e+01 1.867814916114668478e+01 9.923968451461337992e+00 6.444741670814745760e+01
1.970571971491638408e+01 1.866002675469798433e+01 9.927175392104238938e+00 6.444399143592522705e+01
1.969655947459295930e+01 1.864978252829537197e+01 9.921680417429294963e+00 6.440784993922405022e+01
1.969655947459295930e+01 1.856187773491800286e+01 9.921680417429294963e+00 6.427797412266198762e+01
1.970103651798159561e+01 1.850907246170675435e+01 9.921680417429296739e+00 6.407232934265465474e+01
1.968854125329869120e+01 1.849240670634061701e+01 9.929408332101161250e+00 6.388755464058398559e+01
1.969043151692832438e+01 1.855145465867060750e+01 9.945440944754535550e+00 6.384272301487150969e+01
1.969390683949846022e+01 1.871825798392337958e+01 9.968551456736328475e+00 6.381820385214241043e+01
1.968757286656173022e+01 1.882853333372990079e+01 9.971744059370957203e+00 6.387551272681577785e+01
1.968094952560752375e+01 1.882490398114630281e+01 9.971744059370957203e+00 6.387658554081929196e+01
1.972750860134593154e+01 1.894993052105234810e+01 9.969074247170595982e+00 6.387282916572276292e+01
1.973759988084107775e+01 1.937452006956674566e+01 9.983610204009368161e+00 6.403544450406823785e+01
1.973255488618180920e+01 1.964585278116931377e+01 9.998125027503906637e+00 6.405090766846012684e+01
1.973115644227451071e+01 1.966009971031118653e+01 1.001467791122610151e+01 6.379270191388356182e+01
1.973115644227451071e+01 1.966634366507184239e+01 1.005779782982338411e+01 6.340984132730189771e+01
1.973150633317633051e+01 1.967671946047014941e+01 1.011410275929605085e+01 6.334877621954194638e+01
1.972256862487349238e+01 1.968373705116429306e+01 1.015560237433506430e+01 6.334742524991527546e+01
1.972007448235201110e+01 1.968856264076628904e+01 1.017423320676305210e+01 6.335133686382319240e+01
1.972305815746747371e+01 1.967831691124467142e+01 1.017372095870532434e+01 6.335467144791774530e+01
1.972305815746747371e+01 1.967705205239624888e+01 1.016739499702848981e+01 6.334887949532812002e+01
1.972380915314055017e+01 1.969958707061423198e+01 1.016354599072587384e+01 6.334876324375719747e+01
1.972271276108278215e+01 1.968698875042544572e+01 1.016463239598953550e+01 6.334740395275566271e+01
1.972360170733304230e+01 1.967727917995891929e+01 1.016106509700631655e+01 6.335792167072404624e+01
1.972546492741918200e+01 1.968696137530399781e+01 1.016099845810439994e+01 6.336995257465168407e+01
1.972747052520530886e+01 1.970582619174791716e+01 1.016091515886241403e+01 6.337818448798926596e+01
1.973671930023268928e+01 1.971218009876240984e+01 1.017709515655621644e+01 6.339392780537898631e+01
1.979046374232240169e+01 1.972105599824828914e+01 1.022175377054250767e+01 6.338650485547852753e+01
1.989461625372161535e+01 1.975451161244045650e+01 1.025715940724331254e+01 6.348927691156675479e+01
1.997474803152330836e+01 1.975581653638690227e+01 1.026737044747095773e+01 6.385085504481207153e+01
2.002443637266338072e+01 1.976071482595484241e+01 1.026465124520068528e+01 6.440554717874542234e+01
2.005168908702815855e+01 1.980090570536387062e+01 1.027212113955048700e+01 6.462131738206520026e+01
2.003534038283796193e+01 1.982575461647579829e+01 1.027212113955048700e+01 6.450201459701553119e+01
2.000799535226299497e+01 1.982611326322042444e+01 1.026681078746462639e+01 6.455664396259770399e+01
2.000448118171303591e+01 1.984385940904754619e+01 1.025933702661141744e+01 6.481369248448666553e+01
2.003232304558920163e+01 1.985348751175415316e+01 1.025661569454564237e+01 6.493473913794991859e+01
2.009230060801510831e+01 1.987791758860515401e+01 1.025623394748774153e+01 6.474795837054325887e+01
2.017608107544287677e+01 1.996297153780914968e+01 1.025623394748774331e+01 6.455408911752688539e+01
2.021297399698629960e+01 2.006220260903684505e+01 1.023071713154068263e+01 6.460324952224618755e+01
2.021979863243394249e+01 2.009752785011243148e+01 1.021739861538151040e+01 6.465291235291418559e+01
2.020349603780273640e+01 2.008673337253666347e+01 1.023854200096869249e+01 6.465780316120864768e+01
2.019328465776458970e+01 2.008363551632800181e+01 1.028254216357025186e+01 6.474580257000141614e+01
2.016675141950674899e+01 2.012939129215564549e+01 1.032608481398443701e+01 6.474580257000143035e+01
2.014178915694542127e+01 2.014810566528223745e+01 1.032608481398443701e+01 6.474428271062706131e+01
2.015157221698042633e+01 2.017817120172303902e+01 1.032921607410746390e+01 6.471714726866136402e+01
2.014978113072639587e+01 2.020031130270137254e+01 1.032921607410746390e+01 6.461801775506272350e+01
2.014868776247006110e+01 2.019411098264487237e+01 1.034513284910348574e+01 6.441408435205457295e+01
2.014487664865463401e+01 2.019441904106292540e+01 1.035795255760519495e+01 6.433644847295818181e+01
2.010982624662656804e+01 2.017733362710192679e+01 1.035054460719821279e+01 6.441086019262282036e+01
2.010261128219028137e+01 2.017486667133254841e+01 1.033465254692193369e+01 6.457668065078603092e+01
2.010470956673694332e+01 2.017454174694875491e+01 1.031871960592010673e+01 6.470963522469897100e+01
2.007587379359058843e+01 2.014883314485923904e+01 1.033465254692193369e+01 6.470852925815577805e+01
2.007309482971781378e+01 2.011088547112512259e+01 1.036213171435298896e+01 6.473593008054801601e+01
2.008501473610389709e+01 2.010651488662431063e+01 1.037837527484914268e+01 6.474171001907194523e+01
2.008852287491983191e+01 2.010554214487583025e+01 1.037787310317485101e+01 6.474304003639001337e+01
2.009192478027372530e+01 2.009586284668343481e+01 1.037893707397824095e+01 6.480190920299803281e+01
2.010071845986714933e+01 2.009201971146865162e+01 1.038164264775088519e+01 6.481201818084051069e+01
2.010242855352334601e+01 2.009201971146865162e+01 1.039668273564217138e+01 6.483648051547524460e+01
2.010851371507876095e+01 2.009055416340503797e+01 1.042179320777379381e+01 6.495056747676343889e+01
2.012513085115665490e+01 2.008184157772168987e+01 1.042179320777379381e+01 6.508464805062405389e+01
2.015205693362782569e+01 2.007215085052035164e+01 1.042091741381726777e+01 6.520789796729842180e+01
2.016851889429441158e+01 2.007599778921863631e+01 1.042141751133692829e+01 6.521090202867615915e+01
2.016768377618454622e+01 2.008556480873875927e+01 1.041798688737896050e+01 6.509893634057011980e+01
2.016395227105813959e+01 2.010233616090539854e+01 1.041798688737896050e+01 6.503258487522698772e+01
2.015489954765781988e+01 2.011537087849434258e+01 1.042804044802281993e+01 6.498482503749319505e+01
2.014921937518947104e+01 2.009600636095087722e+01 1.043539338528260707e+01 6.493737888545858539e+01
2.014548444994173337e+01 2.007948396629533505e+01 1.044656275267611534e+01 6.493698494535762222e+01
2.014534485423810040e+01 2.008960183924455123e+01 1.046230100434889820e+01 6.491904497413376873e+01
2.014534485423809684e+01 2.010039477637304373e+01 1.046026528466654071e+01 6.491117923958555025e+01
2.013716506866952471e+01 2.010009091006086734e+01 1.045822916872641350e+01 6.490474292957026137e+01
2.013912966646880776e+01 2.012554758193454774e+01 1.046127233110772181e+01 6.488233102003658814e+01
2.014016002955729689e+01 2.016501132637201010e+01 1.046174622831198242e+01 6.487877982725632364e+01
2.013382676896878465e+01 2.018475032244338152e+01 1.046224437420575626e+01 6.484556352838335158e+01
2.012065575446065679e+01 2.019839243189198541e+01 1.046801813838703588e+01 6.481845301975049267e+01
2.011467521428515326e+01 2.021809883790704276e+01 1.047110695512179390e+01 6.479065229640461610e+01
2.011646942622331480e+01 2.022645076344450388e+01 1.047419486097141395e+01 6.476725727613916206e+01
2.014401644797227320e+01 2.023574365735158054e+01 1.047765555005507920e+01 6.481989526459912554e+01
2.017162651356712288e+01 2.022891756354529846e+01 1.050868051401316450e+01 6.490020531149035321e+01
2.018009419443272634e+01 2.025961461642458872e+01 1.058509862332892837e+01 6.492174320790840625e+01
2.018750728915065196e+01 2.025961461642458872e+01 1.064546878561954024e+01 6.492010400387233915e+01
2.021911241942906656e+01 2.032750757322151713e+01 1.069915266484220062e+01 6.493060980980851582e+01
2.022259729550527751e+01 2.040822375365818431e+01 1.075990916251619645e+01 6.495296137878241893e+01
2.021759901841735996e+01 2.044534878693386659e+01 1.079012258992454498e+01 6.495939124124856789e+01
2.022943377794290498e+01 2.047857617916940853e+01 1.078814873023170584e+01 6.500885662272180809e+01
2.022945385297167675e+01 2.047822895937808951e+01 1.089764574509558770e+01 6.501283019738181679e+01
2.022775449828388616e+01 2.049541047241336500e+01 1.116099719136242641e+01 6.503413366066776291e+01
2.025496068134529892e+01 2.052949770791721562e+01 1.134000862370042384e+01 6.507684616600285210e+01
2.027538529850527738e+01 2.054533835933052188e+01 1.146649812565283533e+01 6.510307320452390911e+01
2.027402580354587514e+01 2.054533835933052188e+01 1.148654873430657553e+01 6.511091575729524550e+01
2.027511241274658360e+01 2.053914508524421478e+01 1.148405925035220321e+01 6.510434179218464124e+01
2.027670765754417559e+01 2.049790274750187180e+01 1.148717149804946480e+01 6.509413531458574198e+01
2.027682481495012823e+01 2.047634426957226239e+01 1.148717149804946480e+01 6.511098505193727703e+01
2.028029977398864503e+01 2.051527300409895815e+01 1.148762517779893422e+01 6.515663894242550214e+01
2.027870481176852735e+01 2.064467521677308781e+01 1.148762517779893422e+01 6.519159526590524933e+01
2.027194007331753411e+01 2.068931401551804683e+01 1.149384689934575299e+01 6.521615507858156491e+01
2.026822776242438451e+01 2.066825124111966971e+01 1.150296019925306013e+01 6.522515469750608474e+01
2.025446244665219453e+01 2.066231005557489553e+01 1.149464094548411808e+01 6.522677695941752063e+01
2.025098305406869059e+01 2.066566524147508588e+01 1.149745396101241113e+01 6.522752615417512345e+01
2.025015133678867230e+01 2.066190148024566753e+01 1.150026628846480037e+01 6.522078231877934229e+01
2.025079653913669020e+01 2.066160039185521313e+01 1.149788283405253608e+01 6.522233005492520874e+01
2.024782593604007630e+01 2.066067544247714594e+01 1.150128530146087513e+01 6.524994685571475372e+01
2.025417917935729761e+01 2.062726287043544815e+01 1.150608477222378134e+01 6.524350881454492423e+01
2.025916843150718449e+01 2.064281410740094458e+01 1.150642505323004272e+01 6.525634319415698315e+01
2.025762441064706820e+01 2.066823143359662396e+01 1.150361423143178818e+01 6.525964196556398633e+01
2.025655691151659354e+01 2.067640153555202787e+01 1.150395458551536443e+01 6.527045653795903490e+01
2.025655691151659354e+01 2.068627071351217594e+01 1.150395458551536443e+01 6.524810086334774439e+01
2.025655691151659354e+01 2.073562673997046701e+01 1.150440760341878565e+01 6.522777098041599686e+01
2.025351900920374248e+01 2.075901870463481913e+01 1.150445174641538415e+01 6.521916063392413321e+01
2.025449094010619433e+01 2.077096681121780719e+01 1.150683152503763473e+01 6.518667053465455297e+01
2.025555854811654655e+01 2.077053856803055609e+01 1.150689036993052916e+01 6.509977745978552832e+01
2.025482726832076708e+01 2.077425618097340276e+01 1.154033077799765472e+01 6.501836787026877573e+01
2.025134793841743175e+01 2.079298905383041784e+01 1.157677734369975475e+01 6.493963620127233582e+01
2.024112705926996014e+01 2.080593828003706136e+01 1.160765054201753443e+01 6.496414690853409013e+01
2.024046495487469244e+01 2.081558625468052526e+01 1.162662451038993439e+01 6.496457767886741408e+01
2.024140387331975433e+01 2.081393674070440980e+01 1.164523134959542006e+01 6.502256836909472781e+01
2.024661540479076294e+01 2.082114764126555428e+01 1.165168813458375929e+01 6.501871603433582436e+01
2.024033551869905523e+01 2.082234300183446862e+01 1.164617953775399961e+01 6.501229203922592603e+01
2.023132753832145170e+01 2.082114764126555428e+01 1.164927753577877212e+01 6.496714714279517011e+01
2.022876314136656717e+01 2.082069402315986295e+01 1.165160594191203991e+01 6.493372152490260873e+01
2.022985218176784628e+01 2.082604566929061107e+01 1.165166405564458252e+01 6.491898856046358901e+01
2.023087792433908660e+01 2.086988119003184039e+01 1.164272531264050592e+01 6.482201685132606883e+01
2.022909385982255159e+01 2.096990771636135875e+01 1.163633629221843790e+01 6.476070042389598314e+01
2.020605714308238277e+01 2.101983980606683033e+01 1.162497012751430425e+01 6.482226702757009207e+01
2.018497741430931569e+01 2.099165652617038447e+01 1.161493401727276087e+01 6.496594937067879982e+01
2.013514674897712098e+01 2.099165652617038447e+01 1.163116931978895785e+01 6.491803156376201400e+01
2.003410268757193791e+01 2.099870062978607876e+01 1.164900951264097628e+01 6.487967850624417565e+01
1.991339141221748577e+01 2.099899688475725412e+01 1.169520838230768511e+01 6.459330157372049541e+01
1.979905419128677835e+01 2.100225054050267559e+01 1.171908924386191053e+01 6.458383558038035233e+01
1.977211407452873360e+01 2.100550369227181591e+01 1.172802751981764224e+01 6.462919305107872958e+01
1.978553763643646590e+01 2.100098071057742288e+01 1.172569263393851635e+01 6.468569452138241616e+01
1.979352011381950405e+01 2.100527656834614376e+01 1.172337894233569244e+01 6.460565534776041829e+01
1.968666244380131758e+01 2.099617664193598543e+01 1.171514396606375286e+01 6.431024610521720319e+01
1.949631150045679462e+01 2.095108344134128231e+01 1.168732209813693679e+01 6.421374095342527255e+01
1.936639223920768771e+01 2.092880306513916011e+01 1.168964292635151203e+01 6.418668774156837742e+01
1.928350844537486708e+01 2.092519277504299779e+01 1.169143563064861269e+01 6.390475249958804227e+01
1.924876457445629896e+01 2.092470946559063449e+01 1.169484920063529465e+01 6.374336306435050403e+01
1.922448772970323816e+01 2.091961085630844863e+01 1.169995683691183430e+01 6.374220701445474901e+01
1.920018018915908442e+01 2.089636047368165350e+01 1.170715811397454154e+01 6.373417659900851362e+01
1.919747805215163083e+01 2.085676228962791257e+01 1.172585557755168395e+01 6.373903672219721273e+01
1.919558632992257330e+01 2.083845461655074160e+01 1.173905824100042317e+01 6.374094418028026610e+01
1.918289840012479175e+01 2.083845461655074160e+01 1.175051533446937491e+01 6.374463999203073428e+01
1.916950297919876434e+01 2.080628803878076738e+01 1.177502321635078353e+01 6.372063151125860969e+01
1.915532493806470526e+01 2.080628803878077093e+01 1.180949790234961405e+01 6.366386777217987714e+01
1.915532493806470526e+01 2.081122246944450183e+01 1.185381673156793525e+01 6.361340114562028702e+01
1.916397097166564834e+01 2.083979411493097444e+01 1.190600791136978742e+01 6.362484278105215196e+01
1.917849782480830712e+01 2.085800524769115327e+01 1.195797130225691696e+01 6.375053631298801804e+01
1.918813501558129531e+01 2.087708903797122773e+01 1.198205486490526717e+01 6.375605783573514174e+01
1.918836464083144122e+01 2.089921793957958229e+01 1.200258433111802603e+01 6.381364363483411495e+01
1.918648363795487910e+01 2.091783890381712041e+01 1.205369904658316749e+01 6.400286064883040638e+01
1.917784775384115648e+01 2.089552255913640266e+01 1.209295434149984771e+01 6.407340656367199472e+01
1.917784775384115648e+01 2.087645561949421591e+01 1.209929552600480918e+01 6.394503841169856173e+01
1.917876195490322999e+01 2.097136476577951214e+01 1.211760665748810339e+01 6.378853044140149109e+01
1.918914181413133235e+01 2.120189953957062201e+01 1.217262690078029053e+01 6.375777436794358977e+01
1.919807878971687387e+01 2.126061756596089580e+01 1.219570480069110197e+01 6.383592797691285625e+01
1.922734503676582918e+01 2.125969763047862315e+01 1.221387139549127632e+01 6.394193949039710390e+01
1.920580590245677755e+01 2.127800313138848765e+01 1.221387139549127454e+01 6.394164003928586482e+01
1.917753011389918782e+01 2.128743715604844056e+01 1.221066748976484106e+01 6.394838977451742323e+01
1.917037680283941725e+01 2.128682633068423513e+01 1.220769809200735523e+01 6.399181580947367820e+01
1.916858355789954871e+01 2.127860356773234329e+01 1.220765649195618607e+01 6.400522380207418394e+01
1.916971164283673446e+01 2.126594215812484734e+01 1.220983682387279146e+01 6.400386608724198823e+01
1.917165306147360226e+01 2.125771131690125415e+01 1.220897400708184044e+01 6.400274792501963361e+01
1.916885578891386999e+01 2.125863133833828300e+01 1.220378632005657416e+01 6.400198439324834965e+01
1.915943887251164313e+01 2.126529446726234340e+01 1.221933623342937558e+01 6.399030516596717177e+01
1.915079079279783159e+01 2.128444617914010095e+01 1.225863815216029629e+01 6.399816053382788539e+01
1.915068476381049578e+01 2.130727308892541316e+01 1.229172464000068565e+01 6.399806993240972020e+01
1.914888967476121806e+01 2.130698643432974393e+01 1.230741751894360547e+01 6.400202535821506444e+01
1.914644965912767205e+01 2.129533881720078270e+01 1.230525447707604236e+01 6.401978517578456263e+01
1.916346189852388804e+01 2.129859428176841973e+01 1.231819522111904064e+01 6.402137333011222609e+01
1.916416121243444337e+01 2.129800478619327819e+01 1.236800564301294258e+01 6.400926722306392946e+01
1.916272128872906677e+01 2.129842242372374272e+01 1.238831621430450802e+01 6.399906028586362083e+01
1.917708970732638107e+01 2.130140663350768193e+01 1.238574653323730779e+01 6.399879550392808625e+01
1.917520759842884814e+01 2.131433404588044667e+01 1.238115386810130758e+01 6.400038417910947430e+01
1.917443511596043848e+01 2.130728019009884022e+01 1.236299853860704623e+01 6.397891632618988211e+01
1.916859152231874575e+01 2.130356222308165570e+01 1.235565964833929797e+01 6.389821314085086357e+01
1.915798536492925308e+01 2.128828577487421114e+01 1.236339954161475774e+01 6.382026822032015190e+01
1.915798536492925308e+01 2.127297199937152783e+01 1.240037753238182461e+01 6.361746848557875467e+01
1.916168123285402558e+01 2.130216459187606759e+01 1.241321911131838363e+01 6.340353159149422169e+01
1.914910813004555479e+01 2.132879570110273093e+01 1.241971203150862024e+01 6.314107184292650032e+01
1.913480886036867190e+01 2.134277295025285781e+01 1.241971203150862024e+01 6.304889582818722715e+01
1.913572511759553763e+01 2.133290020428645661e+01 1.241971203150862024e+01 6.305574112635268591e+01
1.910761712658532474e+01 2.131522608417228071e+01 1.238353312692302488e+01 6.296055666870810796e+01
1.908845605043818239e+01 2.133109281352876252e+01 1.237900332925070224e+01 6.243346276503974934e+01
1.908784866355670218e+01 2.133109281352876607e+01 1.237900332925070401e+01 6.143312008252230072e+01
1.908795504158342382e+01 2.141443414722987981e+01 1.237292609796082132e+01 6.114260260631374422e+01
1.908984575289989039e+01 2.144164689895294629e+01 1.237381852402887006e+01 6.123124318085992002e+01
1.909256312292415458e+01 2.143348353160023478e+01 1.237178086071686067e+01 6.125026330485123083e+01
1.914042778456575533e+01 2.146842138287563984e+01 1.236958801842648370e+01 6.121147936158384084e+01
1.915431684093283948e+01 2.152459624474704469e+01 1.236697338177777539e+01 6.120589014689358009e+01
1.914479787556339829e+01 2.151772430050891671e+01 1.237275292510118696e+01 6.116795606879148295e+01
1.914300223448532279e+01 2.149019398034163686e+01 1.237060130735769903e+01 6.110858195469442222e+01
1.918813978936407239e+01 2.147122579033108281e+01 1.237102258932542753e+01 6.112223359297011172e+01
1.915003597950083858e+01 2.145877676739081963e+01 1.236840825593980675e+01 6.113245598758162203e+01
1.913301180236687316e+01 2.150434007371640632e+01 1.236583443790187609e+01 6.113338749483463630e+01
1.888348930016669414e+01 2.159212158248262625e+01 1.236946269753055994e+01 6.113338749483463630e+01
1.887953891217093982e+01 2.162850257922121244e+01 1.236946269753055994e+01 6.111044643294307122e+01
1.887762713733314257e+01 2.164526341118025243e+01 1.236344923658442418e+01 6.101572547232068899e+01
1.886312207146111319e+01 2.166590436190879743e+01 1.234824531282076343e+01 6.101466460871193220e+01
1.886507027753081900e+01 2.167148285295783339e+01 1.237772012228423257e+01 6.102017581516464872e+01
1.889604943375316637e+01 2.167599425676660019e+01 1.241395687706381423e+01 6.092819409660525309e+01
1.889380512203695872e+01 2.170328889314655640e+01 1.242172858444427419e+01 6.036914764905665720e+01
1.882237551681978260e+01 2.174224488331518401e+01 1.241660252023877753e+01 5.969841783928283974e+01
1.872736024224566265e+01 2.175552808903318436e+01 1.241042346681208031e+01 5.956283510943382709e+01
1.868952828340450267e+01 2.171229854819717531e+01 1.241772999165306324e+01 5.956283510943382709e+01
1.868759707014726956e+01 2.165946877478866384e+01 1.242212087791774699e+01 5.955426194818976171e+01
1.867666070910010134e+01 2.159177678977296466e+01 1.242432702988777393e+01 5.904804144045424152e+01
1.862745343955645083e+01 2.153865140391520328e+01 1.241972351647169148e+01 5.882478675825014847e+01
1.858756508608672320e+01 2.155911112281870246e+01 1.240185846337555908e+01 5.869869615752637770e+01
1.856017225466518994e+01 2.156859189792830378e+01 1.240227868359681551e+01 5.857191907145950438e+01
1.846248154039727751e+01 2.156828796990414077e+01 1.240227868359681551e+01 5.839618174943976214e+01
1.834504588645601686e+01 2.156857640131537224e+01 1.240227868359681551e+01 5.805015735270319510e+01
1.828202354489723547e+01 2.157743492894166337e+01 1.240231963084325528e+01 5.794454437851420181e+01
1.827506857596372924e+01 2.159814070221582227e+01 1.241009862594169633e+01 5.792342302759395523e+01
1.827446857493199062e+01 2.159772886036967066e+01 1.241009862594169633e+01 5.789823058465260175e+01
1.826136689269207380e+01 2.159772886036967066e+01 1.241520010574134858e+01 5.788846200922598939e+01
1.826841098406874409e+01 2.160929082361053233e+01 1.240927663587205210e+01 5.789682204779119701e+01
1.829793798627348878e+01 2.160929082361053233e+01 1.236111581636544621e+01 5.790443011474684454e+01
1.833645216691359536e+01 2.159682328444112542e+01 1.232256369695851816e+01 5.788882008983773630e+01
1.835639822885134720e+01 2.159116832239619654e+01 1.228696990089908248e+01 5.788501234441952903e+01
1.834646527234906088e+01 2.160014137683775459e+01 1.226638112181420759e+01 5.788501234441952903e+01
1.833951259810840284e+01 2.162473663021228631e+01 1.225851092692746214e+01 5.788340662567814832e+01
1.833833344344145999e+01 2.158124510169369970e+01 1.225563599596528341e+01 5.787015313228056357e+01
1.833820390158689762e+01 2.160524930981770098e+01 1.226396533204493267e+01 5.781535394852826215e+01
1.833683200090763421e+01 2.164463255357730276e+01 1.231384682971166278e+01 5.764034109435510800e+01
1.832574446299095072e+01 2.165097122454429268e+01 1.231221349658947162e+01 5.737098442133969911e+01
1.827756761906546146e+01 2.163852770051708063e+01 1.230856836133268395e+01 5.693809908763729055e+01
1.819086274047615603e+01 2.160679623897794599e+01 1.231075144682890432e+01 5.653917677534403197e+01
1.810374260798515067e+01 2.156850240217692161e+01 1.231525136672410703e+01 5.653917677534403197e+01
1.799220510451244337e+01 2.153826718825615316e+01 1.232471721645571705e+01 5.660437950011997543e+01
1.789180204496397408e+01 2.153991278919311370e+01 1.233247652929451021e+01 5.662908361357794718e+01
1.783677803461647926e+01 2.153075464305369735e+01 1.233247652929451021e+01 5.648667398416729668e+01
1.780649372006863018e+01 2.148930089833957879e+01 1.232989521064959959e+01 5.655568402091520142e+01
1.779517389676698258e+01 2.152893306489459135e+01 1.232917555336122106e+01 5.665557137540493216e+01
1.776237485743888200e+01 2.150500937315253225e+01 1.230871709584715390e+01 5.629640051187644900e+01
1.778935148423095924e+01 2.151961067753577339e+01 1.228822457743997987e+01 5.566519957058990542e+01
1.781655565037315370e+01 2.155048493513262997e+01 1.228780045677825861e+01 5.553928695863500309e+01
1.778096143602786938e+01 2.155107777983996087e+01 1.224827244902724921e+01 5.550412590531988855e+01
1.761040567513547117e+01 2.154612739293796508e+01 1.220139243470186585e+01 5.539637710205968801e+01
1.755980334104505047e+01 2.152817307698708760e+01 1.213029043286268127e+01 5.536835793586082843e+01
1.755237711050871852e+01 2.153517485246045027e+01 1.211905967579992982e+01 5.536835793586082843e+01
1.748352070997649577e+01 2.154669256798774768e+01 1.213691159667894759e+01 5.537381568822581102e+01
1.748428721613143111e+01 2.155105974639557687e+01 1.214486059144360475e+01 5.537386692686002476e+01
1.742797663804312336e+01 2.156408922953571761e+01 1.214752303581268933e+01 5.537875245284605086e+01
1.728726982385719424e+01 2.156560912269142705e+01 1.212584751617798773e+01 5.539054789577011206e+01
1.725703716061489956e+01 2.154804331610440471e+01 1.208626786007988052e+01 5.539502137226415357e+01
1.725817784557542112e+01 2.141496827998378549e+01 1.205623497720577220e+01 5.541937356009721327e+01
1.726500799313002332e+01 2.131744749149653018e+01 1.207014059510492565e+01 5.551453210136605776e+01
1.723793757470743060e+01 2.130791265811939894e+01 1.208335415294941484e+01 5.560207696438688174e+01
1.719906193690546203e+01 2.130257274680013069e+01 1.208492295985373133e+01 5.564482564006829790e+01
1.719581806650026934e+01 2.129038061549655936e+01 1.209589891101938086e+01 5.563014367079778566e+01
1.719931580934283488e+01 2.128775066822964135e+01 1.211625644106296917e+01 5.562438079577697891e+01
1.720064032731079351e+01 2.129779596435692923e+01 1.212941976129113364e+01 5.564883323443181240e+01
1.721088951069962647e+01 2.131969123430367574e+01 1.215284140214130559e+01 5.569279321737779753e+01
1.723721732964779818e+01 2.131969123430367574e+01 1.219220494191267612e+01 5.567931374176232850e+01
1.723620015015423945e+01 2.133354962008694145e+01 1.221550620095622008e+01 5.566146339608403792e+01
1.723745469811336051e+01 2.133234651585970454e+01 1.222504928356527643e+01 5.567389181037735568e+01
1.723759251218617905e+01 2.132338616963493294e+01 1.222500774255786915e+01 5.564554041604414891e+01
1.725026527611030502e+01 2.132792444549425781e+01 1.221476119723999609e+01 5.581595694596306600e+01
1.727525380622554962e+01 2.133456593307470328e+01 1.221476119723999609e+01 5.591634886536855475e+01
1.726780457893176646e+01 2.132143790724986943e+01 1.220910058872478388e+01 5.591416253824787930e+01
1.726866235128950677e+01 2.132589292369047840e+01 1.220910058872478388e+01 5.591781474873283031e+01
1.726479293174919505e+01 2.132989360387697175e+01 1.218110036678131358e+01 5.582334366224942812e+01
1.725816156574941829e+01 2.132989360387696820e+01 1.216266948599689179e+01 5.586120474634971345e+01
1.727525380622555318e+01 2.132960725328477025e+01 1.213363815125537215e+01 5.601031462751841872e+01
1.728677666627039144e+01 2.129862592326975346e+01 1.212324456511539061e+01 5.609793925371593559e+01
1.729287865267599500e+01 2.122566860837866898e+01 1.212846670216808143e+01 5.597308240818620106e+01
1.730031708349619990e+01 2.119633352648624935e+01 1.213216594947496851e+01 5.579522279078742031e+01
1.728647709288517120e+01 2.120209379800444083e+01 1.213216594947497029e+01 5.578864380672470702e+01
1.724984381580049231e+01 2.120712449294761015e+01 1.211503725729309799e+01 5.592280201021407038e+01
1.702812940645107531e+01 2.121420174582846840e+01 1.209193839488110633e+01 5.606328069631318556e+01
1.665543526708855637e+01 2.120045376321094110e+01 1.207103579588760489e+01 5.607940549358207249e+01
1.659500965118261107e+01 2.120184259113764824e+01 1.206007932584192943e+01 5.599558619349924271e+01
1.657514225387454587e+01 2.120213066728699403e+01 1.206544104397348249e+01 5.575055793975162999e+01
1.642212918522373855e+01 2.126199790626565544e+01 1.206544104397348249e+01 5.578556366976678049e+01
1.629100009830102280e+01 2.131119404333581002e+01 1.207015383769402916e+01 5.557570264381372027e+01
1.638459396189534090e+01 2.131501007723692709e+01 1.210774600599136797e+01 5.501393699521606351e+01
1.643831960236540013e+01 2.131046905113489842e+01 1.213120949228063949e+01 5.476885514992624593e+01
1.643730797067585314e+01 2.128128785026989434e+01 1.215148697014484291e+01 5.479535195647166290e+01
1.639326337705554693e+01 2.124763794823740781e+01 1.215604584663943655e+01 5.478233510935439199e+01
1.640589524092413853e+01 2.124625211386810619e+01 1.215604584663943655e+01 5.484294466231369825e+01
1.646157367415128547e+01 2.125448739269063125e+01 1.214973428127545141e+01 5.493021834904356382e+01
1.646888086188141642e+01 2.128645178588276821e+01 1.215194590119623186e+01 5.491434701599940382e+01
1.646888086188141642e+01 2.132347541856263717e+01 1.214932622599294199e+01 5.496184599404938353e+01
1.647177609820843358e+01 2.135486297730281180e+01 1.214567401775627609e+01 5.508756259368899322e+01
1.648214468213539163e+01 2.136081974658381455e+01 1.214833628385384756e+01 5.503784873297285429e+01
1.646980860897227572e+01 2.135957123366583588e+01 1.215833070390832660e+01 5.500603338138100895e+01
1.645286564673493501e+01 2.135927997989113791e+01 1.217612504804381146e+01 5.498549537354011818e+01
1.645067186438020812e+01 2.135033093715517083e+01 1.217291120749674782e+01 5.498098857635793735e+01
1.645290573372508902e+01 2.134708336251219407e+01 1.217066167082134953e+01 5.498149756303116931e+01
1.645467965826674117e+01 2.135120000451290068e+01 1.217199928629639416e+01 5.499136018133759762e+01
1.645361410155361526e+01 2.135240204643757878e+01 1.216703415897234564e+01 5.492354167634860573e+01
1.644289290006001281e+01 2.135560185882645001e+01 1.216175898731757954e+01 5.498420059356689649e+01
1.644289290006001281e+01 2.137362167609204633e+01 1.216398929568749310e+01 5.500828821653698952e+01
1.644485989611477095e+01 2.146165300078363103e+01 1.216624006608450514e+01 5.480185268285737266e+01
1.645915899156183215e+01 2.154490538463122817e+01 1.216012610730661514e+01 5.480094397757763147e+01
1.645915899156182860e+01 2.154837006255256782e+01 1.216278521004132251e+01 5.445980716118633325e+01
1.647023019438942981e+01 2.153065047676711075e+01 1.216321368987653351e+01 5.417751380816216056e+01
1.645914600587903820e+01 2.153964874193739476e+01 1.215534632931534098e+01 5.407057687461453810e+01
1.645917067947766910e+01 2.154323363361944033e+01 1.215534632931534098e+01 5.403087832150797709e+01
1.645953150374712237e+01 2.154731280088954648e+01 1.215830066685307465e+01 5.404572711060145451e+01
1.646834261938677102e+01 2.163251156645274520e+01 1.215830066685307642e+01 5.399127288621376408e+01
1.643136082463989922e+01 2.169860700120428731e+01 1.215787201386821437e+01 5.397344506063700464e+01
1.638098488663540309e+01 2.164282800697215592e+01 1.215744334576969976e+01 5.395844564582638725e+01
1.637996971393753398e+01 2.156239073895513769e+01 1.215247227133639463e+01 5.395844564582638725e+01
1.639482696918484805e+01 2.151844276845744375e+01 1.215247227133639285e+01 5.395403438069855184e+01
1.641090682491913810e+01 2.151844276845744020e+01 1.215744334576969798e+01 5.396370266793783088e+01
1.640636108961533779e+01 2.152046137499639400e+01 1.215428027591925719e+01 5.395906080607408484e+01
1.639354686666405669e+01 2.152046137499639400e+01 1.214681528243514208e+01 5.383353462400180689e+01
1.639247733614957880e+01 2.155300578897009345e+01 1.214713761449996632e+01 5.366266141474537221e+01
1.636105486379706164e+01 2.157954993118975295e+01 1.214713761449996632e+01 5.359476447745247185e+01
1.633253971808561644e+01 2.159231081857717882e+01 1.214975776160166632e+01 5.360696953525354047e+01
1.633982201258153566e+01 2.158255222178426536e+01 1.214900653327669922e+01 5.353892928508751936e+01
1.634710106296661181e+01 2.158315467780474961e+01 1.214146858603192136e+01 5.352401722921777605e+01
1.634813135059103573e+01 2.158315467780474606e+01 1.214142675905924840e+01 5.341954193769917936e+01
1.634813135059103573e+01 2.156469573305819409e+01 1.214937279967982420e+01 5.332855240219446813e+01
1.635857830465443286e+01 2.160599333594064575e+01 1.215168419214390028e+01 5.336531949528271213e+01
1.636540234975940677e+01 2.180591140599367250e+01 1.214902265968748374e+01 5.345061876567567793e+01
1.636122002753800686e+01 2.210968450685607323e+01 1.215423372103728994e+01 5.349930433822108000e+01
1.636151228186168538e+01 2.221580780328979188e+01 1.216207396399150120e+01 5.349434598939966179e+01
1.635926593268100859e+01 2.222008350372949437e+01 1.216818694406031653e+01 5.345427339954776613e+01
1.634694397340098604e+01 2.223759845020841297e+01 1.216552902201955000e+01 5.339085650739834676e+01
1.631371380698391249e+01 2.239255154210982113e+01 1.215523233778770695e+01 5.336987209009967614e+01
1.632091301662310556e+01 2.254845524182780281e+01 1.214402464694468442e+01 5.334679917852241715e+01
1.634005877558311681e+01 2.260918625292335093e+01 1.212842004820083552e+01 5.334550122844100173e+01
1.634768980670288840e+01 2.262964622332199838e+01 1.212575340940099977e+01 5.334493682022315397e+01
1.634337871033743284e+01 2.259914493912055988e+01 1.211880087407990914e+01 5.334555848234790432e+01
1.630462661504940769e+01 2.260452794241406593e+01 1.204190524732693390e+01 5.333641154215008129e+01
1.630362035999501913e+01 2.272751099276040776e+01 1.190375467764687833e+01 5.333533979223906840e+01
1.631126843839898299e+01 2.307848260016340447e+01 1.185428189582144043e+01 5.333120083584842774e+01
1.632136576279215845e+01 2.323922682547861740e+01 1.184549605147880591e+01 5.307053687342534687e+01
1.631126843839898299e+01 2.321478739265223368e+01 1.184075102624829157e+01 5.250150647318227470e+01
1.631305776495761961e+01 2.322921395325388261e+01 1.184119115906841380e+01 5.213884890054247023e+01
1.630036763234224750e+01 2.325235363870458016e+01 1.184926710584245235e+01 5.206863418867062165e+01
1.624325410879372100e+01 2.341380369339231393e+01 1.188158723679626760e+01 5.208669844051932785e+01
1.624325410879372100e+01 2.362089973969475309e+01 1.193098935988126641e+01 5.204930578166820254e+01
1.624325410879371745e+01 2.364722726704714972e+01 1.194403613798953678e+01 5.210679104640391301e+01
1.623904032764387395e+01 2.364097233602526060e+01 1.193643965952997377e+01 5.192972469822652926e+01
1.624130330534398325e+01 2.364100996106930808e+01 1.193643965952997377e+01 5.153819231165949333e+01
1.624009119646532895e+01 2.364841130857162455e+01 1.193910604633362027e+01 5.151708976595628542e+01
1.618599923522931405e+01 2.363976443381035253e+01 1.194209970422287270e+01 5.150203302582917075e+01
1.614434167759230832e+01 2.363851884092384026e+01 1.194209970422287270e+01 5.148544907945932181e+01
1.615696707314971192e+01 2.362394289824156601e+01 1.194449372328521974e+01 5.148559211773327604e+01
1.608441795660769813e+01 2.362618160105531828e+01 1.195257068523754995e+01 5.148283428749429902e+01
1.601411610765673288e+01 2.363378033647413190e+01 1.196598480634168382e+01 5.148243013721864969e+01
1.601636968571563813e+01 2.366065242900213761e+01 1.196868704184381293e+01 5.147317921902239846e+01
1.602602502398866235e+01 2.365314278496717648e+01 1.197138866738525032e+01 5.147206867295697919e+01
1.602711900881890017e+01 2.366580971625616669e+01 1.197095332150284541e+01 5.144511842219433362e+01
1.600898527003437266e+01 2.380893250370635172e+01 1.197095332150284541e+01 5.144232497888872047e+01
1.601701996219992452e+01 2.388336856823268306e+01 1.197273218215458179e+01 5.141911049905082365e+01
1.603615819628184980e+01 2.390587507328226025e+01 1.197539048823043650e+01 5.141889521832998611e+01
1.606267021023728248e+01 2.388527127037451336e+01 1.198890837672888487e+01 5.140511145512280677e+01
1.606267021023728248e+01 2.386588775817997643e+01 1.203698347201656738e+01 5.140322158030173938e+01
1.599175150682930990e+01 2.387628118404074584e+01 1.202903355326603219e+01 5.130542525107455276e+01
1.627167876904052335e+01 2.390802152875428277e+01 1.203657159433698709e+01 5.123937643681467335e+01
1.631190583396610450e+01 2.393941826930453232e+01 1.203878291130793876e+01 5.118214008688576655e+01
1.631910584119661323e+01 2.394514948083177330e+01 1.205244219839282316e+01 5.112469561096279591e+01
1.632256379176314809e+01 2.394175266390032419e+01 1.217608849120274961e+01 5.110831259857440045e+01
1.633964186764336901e+01 2.392333071528108590e+01 1.229286968228330501e+01 5.109592122619572052e+01
1.633949461120235469e+01 2.396257178809023713e+01 1.232008983999711127e+01 5.111496649743202880e+01
1.635153162376063563e+01 2.396282667534678623e+01 1.233785846837286648e+01 5.117731495764112992e+01
1.633880801984988196e+01 2.396364284117458965e+01 1.234043812129861095e+01 5.097198183505913249e+01
1.628389004434067644e+01 2.396033707009798164e+01 1.233913464330461096e+01 5.071624531403717384e+01
1.627203699406369708e+01 2.396033707009798164e+01 1.233913464330461096e+01 5.049622341555453886e+01
1.594407478624930619e+01 2.398710154463668331e+01 1.234175517767225827e+01 5.013005157022679725e+01
1.560937554130564386e+01 2.399628912823907356e+01 1.233913464330461096e+01 5.000402335366223383e+01
1.550288050791994721e+01 2.404042607233445139e+01 1.233423679623510338e+01 4.989835711637807236e+01
1.535101817566218863e+01 2.408955180168457844e+01 1.233495615823582980e+01 4.984538074680138209e+01
1.527639800965891581e+01 2.407811443516106209e+01 1.233495615823582980e+01 4.977131484734552913e+01
1.526648597995549217e+01 2.401568476321349266e+01 1.233668253241526891e+01 4.976515854966803687e+01
1.525749912893692084e+01 2.399719376217515432e+01 1.233626007773830935e+01 4.973868642770532489e+01
1.521042893421629394e+01 2.401156131046135656e+01 1.233884006483591733e+01 4.971048706453797905e+01
1.505815637905841164e+01 2.403525988721662898e+01 1.233592896484087298e+01 4.941714821753271991e+01
1.492162855419980438e+01 2.407922823305136717e+01 1.232857396074663647e+01 4.903480769120643146e+01
1.488220804370700989e+01 2.411014734711047325e+01 1.232599182482286082e+01 4.869704723731818063e+01
1.484588904678702370e+01 2.408878731538897711e+01 1.232305021598143213e+01 4.860466455509798323e+01
1.487051779381530459e+01 2.391286841471298885e+01 1.232521013474415561e+01 4.865286968097151998e+01
1.491788332760977021e+01 2.373199402394816460e+01 1.233784004700985193e+01 4.859573841761844903e+01
1.491670799214237597e+01 2.369086609657918174e+01 1.234876001166109205e+01 4.857443160546089445e+01
1.494540845219173697e+01 2.372929869407672854e+01 1.235496990468208445e+01 4.858263729393041075e+01
1.494276102609033430e+01 2.375041709513143573e+01 1.235945372520970409e+01 4.858141311935664675e+01
1.494981978719177995e+01 2.376795924108851565e+01 1.236256429975593818e+01 4.860233249910540820e+01
1.494186209868694881e+01 2.376795924108851565e+01 1.236256429975593818e+01 4.859361423760942955e+01
1.492948413094630666e+01 2.377590468757627917e+01 1.238048605449721506e+01 4.881873823229762621e+01
1.490582939175736144e+01 2.382340701032029529e+01 1.239796155122284738e+01 4.881525646469142288e+01
1.494445329220324226e+01 2.381765962374791457e+01 1.241322731547279901e+01 4.870557445091473170e+01
1.495697565829550868e+01 2.373304754541041817e+01 1.242331017022435979e+01 4.871406102916895975e+01
1.488678537729052920e+01 2.367600679125131080e+01 1.238714177466295219e+01 4.859538297939011642e+01
1.489245888236205495e+01 2.364395498514108951e+01 1.234997337914539983e+01 4.859046345152100344e+01
1.491369656801573917e+01 2.364605978916384998e+01 1.232358479281089814e+01 4.862645711661089365e+01
1.491959397088867867e+01 2.363701271324370978e+01 1.232352984763700121e+01 4.861906210071929024e+01
1.491104351153347274e+01 2.360695140065128328e+01 1.233128990761307264e+01 4.867592809298656675e+01
1.487288717060380172e+01 2.355138474243170421e+01 1.234462554092265840e+01 4.872743134491699379e+01
1.461480208337347975e+01 2.354319797208339082e+01 1.233758621714961023e+01 4.880151407029907773e+01
1.431244588052107147e+01 2.354665228419342782e+01 1.233046520718500894e+01 4.879550485724682574e+01
1.414856549393534735e+01 2.351624416453539013e+01 1.232892764459261592e+01 4.879037130124753929e+01
1.413391633728993391e+01 2.349154401011943349e+01 1.232116609682703867e+01 4.878436071563918119e+01
1.415363552788392099e+01 2.346312938902321577e+01 1.232738989022412746e+01 4.879773907255949439e+01
1.418109052281163507e+01 2.339852862566458569e+01 1.233028927745006520e+01 4.871479940257989938e+01
1.417970230398054809e+01 2.335088503860281861e+01 1.232808905490222529e+01 4.852399702614778221e+01
1.395205772312856141e+01 2.334338935643332746e+01 1.233071193668881449e+01 4.836162352148238597e+01
1.390138200286256875e+01 2.333462945308348679e+01 1.233518869193333423e+01 4.827141733193255391e+01
1.390138200286257053e+01 2.335461524194689176e+01 1.232704480666798119e+01 4.828833675861697117e+01
1.390794227157674712e+01 2.338476372525591174e+01 1.229188798133142946e+01 4.828884275641319590e+01
1.390794227157674889e+01 2.338250190846518706e+01 1.227394246954091095e+01 4.826208740153702337e+01
1.391026772961294888e+01 2.339641099953961501e+01 1.227657691971178266e+01 4.834193868716478448e+01
1.394764518964323408e+01 2.339037362747144400e+01 1.227700142810124539e+01 4.847339716126360543e+01
1.398492275140784358e+01 2.331271956749601415e+01 1.227933015378282100e+01 4.848514678985306148e+01
1.400232151762145172e+01 2.324608430007180360e+01 1.230066679434899690e+01 4.848114763692788642e+01
1.404102300319239660e+01 2.318098773807344415e+01 1.229291494421075193e+01 4.842229418969736088e+01
1.402888362734224792e+01 2.315163919047730801e+01 1.228555485705061834e+01 4.824192552410816859e+01
1.400474511547822942e+01 2.315137048166648270e+01 1.228039952060192697e+01 4.809604919526757527e+01
1.399034957257482858e+01 2.314645097013172048e+01 1.227186357427428476e+01 4.814046653402518672e+01
1.406376754226422321e+01 2.309744069818223267e+01 1.228877367622986228e+01 4.814933732330694482e+01
1.402331472713131610e+01 2.299407198691389098e+01 1.233650414929610584e+01 4.811826789602467613e+01
1.402100801854767020e+01 2.297759823087212894e+01 1.235691660187119822e+01 4.804033849207974072e+01
1.402217807865494947e+01 2.297898592205593360e+01 1.235242716495831061e+01 4.810044254633837824e+01
1.402267041958050342e+01 2.297678082425918689e+01 1.235500377602532396e+01 4.814120269242967964e+01
1.401377338440690679e+01 2.297908257595832282e+01 1.233196610056969078e+01 4.819643706368344027e+01
1.400528167190904405e+01 2.295876988529753149e+01 1.233203473501433400e+01 4.823916953714687139e+01
1.399995486050501725e+01 2.296639109843000170e+01 1.233435307041273354e+01 4.833954958037567451e+01
1.400175169765714500e+01 2.298372432554635836e+01 1.233607952899137317e+01 4.835267748071039762e+01
1.400695313393237917e+01 2.300401498128920252e+01 1.233681936584953220e+01 4.833721721938074722e+01
1.400206637665234410e+01 2.300151768397130780e+01 1.233724180137521742e+01 4.826660710546783406e+01
1.399673834158675412e+01 2.296513832818586920e+01 1.233724180137521742e+01 4.820220360640785628e+01
1.393479494560928700e+01 2.294580075408232034e+01 1.233724180137521742e+01 4.818912063644239652e+01
1.390359963137285781e+01 2.296527282498609424e+01 1.233846100231305165e+01 4.818912063644239652e+01
1.390238818391207687e+01 2.296078254138372188e+01 1.233888338163547083e+01 4.818853990601498083e+01
1.390377049063232029e+01 2.291811495868232029e+01 1.233750897651547795e+01 4.818675296503799643e+01
1.391302098573532220e+01 2.292150824777269591e+01 1.232220435740294029e+01 4.819011508466854110e+01
1.391195631544481159e+01 2.288455978527979440e+01 1.232220435740294029e+01 4.818054286320980850e+01
1.391661866556832727e+01 2.287395330077520939e+01 1.232842762665215197e+01 4.815585353115027800e+01
1.391644796405239859e+01 2.291759581528376444e+01 1.231311171985375807e+01 4.807556998594606767e+01
1.399271065243774537e+01 2.289326372609881943e+01 1.227215976043336809e+01 4.802678542015485164e+01
1.402130767615886242e+01 2.288984622591522111e+01 1.226654633976491304e+01 4.802621433877126833e+01
1.404275826809598371e+01 2.289295289252521570e+01 1.228346376172454057e+01 4.805106802594089288e+01
1.405748656302083965e+01 2.282544859944805893e+01 1.230391389053093043e+01 4.805106802594088578e+01
1.405731540003916002e+01 2.270916159745618046e+01 1.230158981862100553e+01 4.801520196472778679e+01
1.406635594943402978e+01 2.269846840485157102e+01 1.231176410046911229e+01 4.800587325769211589e+01
1.407087404592117430e+01 2.269846840485157102e+01 1.235041376738447383e+01 4.799175048644922015e+01
1.407365662942096840e+01 2.269513963075306506e+01 1.236037920719263283e+01 4.799124393505130826e+01
1.407382759366399583e+01 2.269827294647572558e+01 1.236037920719263283e+01 4.800547503643306868e+01
1.407900240178654983e+01 2.269831213415170268e+01 1.234935769931375660e+01 4.798636133437914708e+01
1.407775702930612738e+01 2.269231447882840058e+01 1.232524663224229222e+01 4.793684725588030204e+01
1.405886447914072157e+01 2.268373899998363186e+01 1.230724443836230719e+01 4.792306358188714910e+01
1.414900747106234391e+01 2.270429775188048183e+01 1.231305201749752776e+01 4.786277470637904941e+01
1.419028611560896991e+01 2.274396704137997460e+01 1.235556475381032371e+01 4.784694520189975719e+01
1.426843931629681528e+01 2.273243960348394310e+01 1.233978944656674237e+01 4.778707486542357685e+01
